8.25506137
8.26920305
8.25028471
8.26002282
8.26236203
8.25512173
8.26084960
8.26166299
8.25817200
8.26144140
8.26061340
8.25869593
8.26268224
8.26366503
8.26322131
8.26494628
8.26329593
8.26199356
8.26348418
8.26338664
8.26391379
8.26453285
8.26167816
8.26039056
8.26220341
8.26249623
8.26196688
8.26127745
8.26010860
8.26166202
8.26523868
8.26774074
8.26914414
8.26872497
8.26782420
8.26884391
8.26951831
8.26908916
8.26823446
8.26495810
8.26116252
8.25952397
8.25820077
8.25762663
8.25819951
8.25766110
8.25788842
8.25951103
8.25922116
8.25802046
8.25724661
8.25614006
8.25668504
8.25884625
8.25980235
8.25935947
8.25798936
8.25665924
8.25683202
8.25693194
8.25658182
8.25676558
8.25601231
8.25516128
8.25648152
8.25798548
8.25836747
8.25795545
8.25624122
8.25504687
8.25519311
8.25435466
8.25277637
8.25102912
8.24900607
8.24896798
8.24963830
8.24844129
8.24750686
8.24664887
8.24478887
8.24498289
8.24737978
8.24801212
8.24710626
8.24568554
8.24409331
8.24404517
8.24472375
8.24450952
8.24397152
8.24301445
8.24335599
8.24606297
8.24825908
8.24923088
8.24986318
8.24920001
8.24887490
8.24969723
8.24923800
8.24807235
8.24731278
8.24699306
8.24860455
8.25064291
8.25099561
8.25128214
8.25159471
8.25209759
8.25429132
8.25611974
8.25671908
8.25810631
8.25931194
8.26076198
8.26413629
8.26619269
8.26485070
8.26202143
8.25900609
8.25781039
8.25860688
8.25919352
8.25929952
8.25795957
8.25487985
8.25372930
8.25464946
8.25536992
8.25653263
8.25691775
8.25605124
8.25701082
8.25788979
8.25653681
8.25560550
8.25434019
8.25219058
8.25220277
8.25273597
8.25204750
8.25188961
8.25190345
8.25335313
8.25771429
8.26133796
8.26256026
8.26225429
8.26044208
8.25994978
8.26183950
8.26293110
8.26294769
8.26241601
8.26122810
8.26198999
8.26412428
8.26487035
8.26544508
8.26596459
8.26615252
8.26794856
8.26998994
8.27033070
8.27000988
8.26878979
8.26719207
8.26642187
8.26501313
8.26289919
8.26096981
8.25881455
8.25826196
8.25923795
8.25826761
8.25581860
8.25339720
8.25079176
8.25018626
8.25214888
8.25400871
8.25549326
8.25662554
8.25761708
8.26008032
8.26316267
8.26565919
8.26815391
8.26934929
8.26963809
8.27070720
8.27111910
8.27016879
8.26868921
8.26638183
8.26482482
8.26442172
8.26280166
8.26073125
8.25946003
8.25835311
8.25864007
8.25986918
8.26003967
8.25916983
8.25716019
8.25579347
8.25756495
8.25973993
8.26040619
8.26117457
8.26088740
8.25999648
8.26113542
8.26233616
8.26220987
8.26189619
8.26127436
8.26197628
8.26427266
8.26469035
8.26408855
8.26454048
8.26493083
8.26611619
8.26793672
8.26797052
8.26698036
8.26536976
8.26311887
8.26286840
8.26413429
8.26457103
8.26509695
8.26517989
8.26466203
8.26574668
8.26734310
8.26760962
8.26742131
8.26731152
8.26869197
8.27179689
8.27371999
8.27408528
8.27390974
8.27265255
8.27218221
8.27287269
8.27206638
8.27001702
8.26806423
8.26690875
8.26794106
8.26981563
8.27065903
8.27110550
8.27066313
8.27000710
8.27132644
8.27291047
8.27290207
8.27136871
8.26817966
8.26596771
8.26589111
8.26471891
8.26244634
8.26040014
8.25765111
8.25586235
8.25563323
8.25401596
8.25140022
8.24949220
8.24920128
8.25178860
8.25574793
8.25854634
8.26094848
8.26241887
8.26260922
8.26367732
8.26451780
8.26395751
8.26330323
8.26266603
8.26292344
8.26503677
8.26674710
8.26767266
8.26822490
8.26750440
8.26756091
8.26852981
8.26741541
8.26578793
8.26527373
8.26436950
8.26454955
8.26622127
8.26679971
8.26642945
8.26604147
8.26595845
8.26654507
8.26629116
8.26487071
8.26288389
8.25989205
8.25848150
8.25971675
8.25934852
8.25699713
8.25464313
8.25161978
8.24959467
8.25002885
8.25049844
8.25068764
8.25059974
8.24976655
8.25093306
8.25344191
8.25424459
8.25434830
8.25396855
8.25310046
8.25451917
8.25716880
8.25803998
8.25783984
8.25651422
8.25499136
8.25594411
8.25784358
8.25900311
8.26000842
8.26040517
8.26108715
8.26306268
8.26414604
8.26326467
8.26097710
8.25823069
8.25786573
8.25925166
8.25947590
8.25883821
8.25762284
8.25605319
8.25653174
8.25841525
8.26002641
8.26192749
8.26284833
8.26320708
8.26531390
8.26688131
8.26598933
8.26415525
8.26231035
8.26206121
8.26368077
8.26398098
8.26306367
8.26273437
8.26206550
8.26156203
8.26222192
8.26334501
8.26456356
8.26519952
8.26507736
8.26588195
8.26710462
8.26716445
8.26613714
8.26411261
8.26293076
8.26415258
8.26500922
8.26389692
8.26194200
8.25984930
8.25977541
8.26166923
8.26232568
8.26174392
8.26048036
8.25816066
8.25657229
8.25571332
8.25449590
8.25397604
8.25290484
8.25131969
8.25268584
8.25501520
8.25506201
8.25510706
8.25551379
8.25627439
8.25886179
8.26131947
8.26214212
8.26172128
8.25965609
8.25886448
8.26088680
8.26219636
8.26275864
8.26337837
8.26235375
8.26245191
8.26467666
8.26514513
8.26450705
8.26411913
8.26280717
8.26277574
8.26452101
8.26520866
8.26486833
8.26384944
8.26283497
8.26335178
8.26344197
8.26214920
8.26133302
8.26025011
8.25965305
8.26098851
8.26157727
8.26115733
8.26160561
8.26181908
8.26205846
8.26246996
8.26091329
8.25811222
8.25554493
8.25343246
8.25372156
8.25549211
8.25622554
8.25636123
8.25566068
8.25506731
8.25701553
8.25912940
8.25946958
8.25916729
8.25729754
8.25599939
8.25836448
8.26065295
8.26070926
8.26021562
8.25886631
8.25833778
8.25996929
8.26083121
8.26065099
8.26061147
8.26040854
8.26152301
8.26333273
8.26292055
8.26105020
8.25839881
8.25560714
8.25497302
8.25461733
8.25261586
8.25116270
8.25001192
8.24964207
8.25252066
8.25619418
8.25827177
8.26026666
8.26213161
8.26424907
8.26714237
8.26873310
8.26884127
8.26798275
8.26578561
8.26414393
8.26324141
8.26150941
8.26023204
8.25909450
8.25730000
8.25761962
8.25911820
8.25906228
8.25859670
8.25807692
8.25815034
8.26043188
8.26242514
8.26249745
8.26250851
8.26241028
8.26286512
8.26502927
8.26671764
8.26724069
8.26723158
8.26622216
8.26646684
8.26862650
8.26974142
8.26964354
8.26918191
8.26851194
8.26903638
8.26955012
8.26905689
8.26936667
8.26974749
8.26988226
8.27164867
8.27300967
8.27217671
8.27097800
8.26977634
8.26899471
8.26860000
8.26652102
8.26340064
8.26021709
8.25571572
8.25184601
8.24969732
8.24695845
8.24463558
8.24392054
8.24396017
8.24631615
8.25020505
8.25227928
8.25316860
8.25400226
8.25494537
8.25749157
8.26072500
8.26311641
8.26432393
8.26347171
8.26224348
8.26209890
8.26043756
8.25750015
8.25527828
8.25335765
8.25305843
8.25489800
8.25627235
8.25684503
8.25681985
8.25620061
8.25712910
8.25840321
8.25744482
8.25628222
8.25580748
8.25560968
8.25679057
8.25769476
8.25677651
8.25563295
8.25450533
8.25464836
8.25715847
8.25865395
8.25829118
8.25781962
8.25684585
8.25695565
8.25893697
8.25961174
8.25865502
8.25735651
8.25572530
8.25556593
8.25679412
8.25650835
8.25496874
8.25298080
8.25102745
8.25127210
8.25309490
8.25484280
8.25669595
8.25787866
8.25836568
8.25939972
8.25945794
8.25832001
8.25750635
8.25670457
8.25638823
8.25717785
8.25761777
8.25722905
8.25562605
8.25355947
8.25381435
8.25503887
8.25410075
8.25251486
8.25087350
8.24918007
8.25007271
8.25243385
8.25364370
8.25449112
8.25464732
8.25420997
8.25475009
8.25487020
8.25390037
8.25254055
8.25115108
8.25193580
8.25469155
8.25587630
8.25617036
8.25742392
8.25844232
8.26022479
8.26318545
8.26447157
8.26370427
8.26205318
8.26093328
8.26179633
8.26241953
8.26084053
8.25814492
8.25469611
8.25231416
8.25309399
8.25460502
8.25475228
8.25423769
8.25327347
8.25317314
8.25433355
8.25491558
8.25510899
8.25462525
8.25333365
8.25401723
8.25530496
8.25406836
8.25266194
8.25224299
8.25215593
8.25463376
8.25842001
8.26041326
8.26130214
8.26133463
8.26137619
8.26266383
8.26262843
8.26123687
8.26095229
8.26046989
8.26007211
8.26126615
8.26188232
8.26134461
8.26064461
8.25954971
8.25994308
8.26152703
8.26151689
8.26110517
8.26023793
8.25796704
8.25683120
8.25639527
8.25443444
8.25231148
8.25021826
8.24848247
8.24927680
8.25037355
8.24978484
8.24920919
8.24884625
8.24939412
8.25138198
8.25193246
8.25094482
8.25004181
8.24869257
8.24916061
8.25189476
8.25323891
8.25407677
8.25578173
8.25701089
8.25940276
8.26276973
8.26388857
8.26362721
8.26361941
8.26423181
8.26651987
8.26868526
8.26867613
8.26768596
8.26603910
8.26489177
8.26599441
8.26761909
8.26832760
8.26806768
8.26683863
8.26672018
8.26758021
8.26655723
8.26450950
8.26225128
8.25968025
8.25999746
8.26265212
8.26334521
8.26249372
8.26189077
8.26194397
8.26373399
8.26553176
8.26546416
8.26468224
8.26330789
8.26191729
8.26172429
8.26126626
8.26028384
8.25956607
8.25853082
8.25872705
8.26060645
8.26161317
8.26160108
8.26141165
8.26082113
8.26147786
8.26311332
8.26380633
8.26424250
8.26420605
8.26401908
8.26545924
8.26633864
8.26495066
8.26330565
8.26123126
8.25945913
8.26019161
8.26132081
8.26118970
8.26090416
8.26060920
8.26146865
8.26379729
8.26527406
8.26549651
8.26441432
8.26262651
8.26344202
8.26509948
8.26360830
8.26095281
8.25816751
8.25487546
8.25415458
8.25485692
8.25388598
8.25257486
8.25141126
8.25058673
8.25174480
8.25309784
8.25384031
8.25557482
8.25747933
8.25956384
8.26228053
8.26281144
8.26094285
8.25922786
8.25832688
8.25900560
8.26066865
8.26119399
8.26071487
8.25927716
8.25787468
8.25892524
8.26075150
8.26109103
8.26073978
8.25968315
8.25984176
8.26302526
8.26574966
8.26666725
8.26725024
8.26615630
8.26491161
8.26549709
8.26510277
8.26309813
8.26077152
8.25809434
8.25655289
8.25548394
8.25321294
8.25210520
8.25238640
8.25285695
8.25530271
8.25769809
8.25762320
8.25732126
8.25685954
8.25644484
8.25791489
8.25829778
8.25642996
8.25537657
8.25447297
8.25418945
8.25680050
8.25934828
8.26022339
8.26106118
8.26090735
8.26057437
8.26100251
8.26048868
8.25991009
8.26031847
8.26115690
8.26362133
8.26605595
8.26603287
8.26554456
8.26476412
8.26327393
8.26375647
8.26493953
8.26444507
8.26360518
8.26277122
8.26246065
8.26337205
8.26339475
8.26217933
8.26069115
8.25854215
8.25825226
8.26037522
8.26137021
8.26118864
8.26055584
8.25917297
8.25977877
8.26175740
8.26189432
8.26096862
8.25937673
8.25740683
8.25696356
8.25603705
8.25384762
8.25298570
8.25298212
8.25386202
8.25638898
8.25742608
8.25691237
8.25709268
8.25676138
8.25728217
8.25933685
8.25937643
8.25809362
8.25708854
8.25542161
8.25592153
8.25877284
8.25969847
8.25933214
8.25888910
8.25777214
8.25828790
8.25984545
8.25973474
8.25917099
8.25856239
8.25835564
8.25995346
8.26111563
8.26074265
8.26031548
8.25900199
8.25799297
8.25893247
8.25897106
8.25796363
8.25822904
8.25905717
8.26073261
8.26287863
8.26325612
8.26246455
8.26149173
8.26106254
8.26299447
8.26510527
8.26481557
8.26339937
8.26107832
8.25866706
8.25831436
8.25812288
8.25700965
8.25614721
8.25467360
8.25385736
8.25476054
8.25461749
8.25347238
8.25248150
8.25084783
8.25044985
8.25145566
8.25113562
8.25084476
8.25189601
8.25341962
8.25649977
8.25962061
8.26066406
8.26134516
8.26187087
8.26253165
8.26523854
8.26763013
8.26768573
8.26679503
8.26477029
8.26356786
8.26437847
8.26366364
8.26163825
8.26033191
8.25819675
8.25651606
8.25693707
8.25718106
8.25723852
8.25688475
8.25539076
8.25555461
8.25721796
8.25773862
8.25848933
8.25943018
8.25970284
8.26104775
8.26205403
8.26120570
8.26055644
8.26038577
8.26123533
8.26343221
8.26326839
8.26077037
8.25847896
8.25509273
8.25192801
8.25118298
8.25010519
8.24828750
8.24783596
8.24837226
8.25013517
8.25274600
8.25410460
8.25433640
8.25381119
8.25342214
8.25482153
8.25573932
8.25473749
8.25371864
8.25256206
8.25207997
8.25421419
8.25682762
8.25865378
8.26007229
8.26046424
8.26167279
8.26374633
8.26327670
8.26121036
8.25920095
8.25648514
8.25561246
8.25648882
8.25555803
8.25397573
8.25343336
8.25370333
8.25582315
8.25788017
8.25765306
8.25689303
8.25622585
8.25663406
8.25940805
8.26171546
8.26226014
8.26213616
8.26088509
8.26015479
8.26070097
8.25959685
8.25709817
8.25487781
8.25226216
8.25143296
8.25273937
8.25282567
8.25189061
8.25112531
8.25062233
8.25188781
8.25365107
8.25403112
8.25423501
8.25400810
8.25407034
8.25620660
8.25769478
8.25682237
8.25552503
8.25361505
8.25270860
8.25442604
8.25567534
8.25578536
8.25666688
8.25792108
8.26036538
8.26326622
8.26335791
8.26208945
8.26114911
8.25953849
8.25855626
8.25797379
8.25540006
8.25226703
8.24961615
8.24755180
8.24762606
8.24825776
8.24755542
8.24707751
8.24771875
8.25001692
8.25332295
8.25424419
8.25222289
8.24971642
8.24784914
8.24794698
8.24951165
8.24971847
8.24832043
8.24650680
8.24504247
8.24577137
8.24768477
8.24930844
8.25151163
8.25333343
8.25480353
8.25784297
8.26049505
8.26072754
8.26021327
8.25918841
8.25825290
8.25829519
8.25766312
8.25632871
8.25527355
8.25457085
8.25576442
8.25892440
8.26128200
8.26233930
8.26212772
8.26162336
8.26382503
8.26674115
8.26628470
8.26403813
8.26166475
8.25942993
8.25877473
8.25829576
8.25654753
8.25467703
8.25323726
8.25338981
8.25571820
8.25811328
8.25969221
8.25971048
8.25764258
8.25653287
8.25701438
8.25697838
8.25735298
8.25749760
8.25647723
8.25710325
8.25787209
8.25633042
8.25576089
8.25631717
8.25641012
8.25847090
8.26126738
8.26155318
8.26042009
8.25864125
8.25771123
8.25867943
8.25884327
8.25820345
8.25845782
8.25786636
8.25811542
8.26116868
8.26328664
8.26362723
8.26392293
8.26323872
8.26269916
8.26317560
8.26309798
8.26249798
8.26104966
8.25928337
8.25949945
8.25965276
8.25732840
8.25476169
8.25246898
8.25076877
8.25167860
8.25313205
8.25307489
8.25257015
8.25197614
8.25269656
8.25539112
8.25703166
8.25758363
8.25849704
8.25894397
8.26004541
8.26200197
8.26248486
8.26216666
8.26206265
8.26203063
8.26306514
8.26332715
8.26105054
8.25816069
8.25553986
8.25407255
8.25522358
8.25654417
8.25634496
8.25568735
8.25439352
8.25446757
8.25736031
8.25933416
8.25885556
8.25751687
8.25564927
8.25476976
8.25526151
8.25542865
8.25554856
8.25551025
8.25477543
8.25518450
8.25633930
8.25664130
8.25694672
8.25722106
8.25781635
8.25948021
8.25958618
8.25764304
8.25637877
8.25573985
8.25595501
8.25815307
8.26024839
8.26079133
8.26007283
8.25884947
8.25941262
8.26114805
8.26088493
8.25879145
8.25585193
8.25291478
8.25179249
8.25138808
8.25011817
8.24833567
8.24548926
8.24374203
8.24540632
8.24690228
8.24691521
8.24758722
8.24763376
8.24757923
8.24958117
8.25092473
8.25043010
8.24913680
8.24687519
8.24558905
8.24568866
8.24435972
8.24233633
8.24033968
8.23811790
8.23820334
8.23980691
8.23971437
8.23893096
8.23766941
8.23658751
8.23797690
8.23976532
8.23970713
8.23944951
8.23891911
8.23875086
8.24043132
8.24193314
8.24285401
8.24408274
8.24437105
8.24510831
8.24739411
8.24891256
8.24997015
8.25137288
8.25241857
8.25385165
8.25482555
8.25355236
8.25173850
8.24972951
8.24769358
8.24767339
8.24798465
8.24691952
8.24569726
8.24443087
8.24427893
8.24580807
8.24631225
8.24645552
8.24726878
8.24649884
8.24641339
8.24890960
8.25022160
8.25065194
8.25216182
8.25334908
8.25559431
8.25929194
8.26124803
8.26176157
8.26182260
8.26127907
8.26149470
8.26191148
8.26132270
8.26043740
8.25900150
8.25852658
8.26034454
8.26088806
8.25916449
8.25724805
8.25473508
8.25366565
8.25532291
8.25554309
8.25374790
8.25226727
8.25061726
8.25019363
8.25186958
8.25297377
8.25372114
8.25457422
8.25457707
8.25541973
8.25743204
8.25866651
8.25951255
8.26008711
8.26077626
8.26250938
8.26322117
8.26187488
8.25997406
8.25815730
8.25839947
8.26125201
8.26298542
8.26290939
8.26233315
8.26094821
8.26052874
8.26137241
8.26086108
8.25971643
8.25877995
8.25718502
8.25636104
8.25644060
8.25592817
8.25534578
8.25498650
8.25557444
8.25758160
8.25874402
8.25818402
8.25690965
8.25468829
8.25344002
8.25421719
8.25410928
8.25254945
8.25041932
8.24810124
8.24788789
8.24905454
8.24895355
8.24919035
8.24940498
8.24836389
8.24861837
8.24916371
8.24768924
8.24632654
8.24516078
8.24382383
8.24503683
8.24702432
8.24782334
8.24889028
8.24906748
8.24907594
8.25157912
8.25369680
8.25325457
8.25174131
8.24955145
8.24842737
8.24940292
8.25000379
8.25003989
8.25010732
8.24921138
8.24918254
8.25060762
8.25085562
8.24981172
8.24866508
8.24788848
8.24784938
8.24769004
8.24778086
8.24844150
8.24794368
8.24769778
8.24968756
8.25127165
8.25219412
8.25397304
8.25488424
8.25510225
8.25593116
8.25598480
8.25569149
8.25570357
8.25501686
8.25511202
8.25611436
8.25615347
8.25586758
8.25582738
8.25626627
8.25827133
8.25918329
8.25713438
8.25449474
8.25159757
8.24897543
8.24874724
8.24907602
8.24824579
8.24742543
8.24644366
8.24585334
8.24650975
8.24676990
8.24613801
8.24461555
8.24255825
8.24290266
8.24536572
8.24600510
8.24524162
8.24512936
8.24611403
8.24798488
8.24919054
8.24924886
8.24944414
8.24936602
8.25011557
8.25262417
8.25434408
8.25459421
8.25437229
8.25342268
8.25399081
8.25627239
8.25717506
8.25769484
8.25874330
8.25791536
8.25687555
8.25745304
8.25754809
8.25699174
8.25637192
8.25616455
8.25768869
8.25900743
8.25842396
8.25749294
8.25559811
8.25356953
8.25397045
8.25431576
8.25231579
8.25041624
8.24929331
8.24971747
8.25258027
8.25551118
8.25704520
8.25747183
8.25681874
8.25680277
8.25723419
8.25671093
8.25663868
8.25697273
8.25655343
8.25730382
8.25841058
8.25820682
8.25823822
8.25822215
8.25751187
8.25778818
8.25831857
8.25804946
8.25757629
8.25658122
8.25655279
8.25855556
8.25982790
8.25966416
8.25890527
8.25693429
8.25539727
8.25469167
8.25228945
8.24860444
8.24478329
8.24165208
8.24123136
8.24181041
8.24081558
8.23990403
8.23914890
8.23807904
8.23921433
8.24129198
8.24225079
8.24283463
8.24303034
8.24386004
8.24584394
8.24651297
8.24595810
8.24578151
8.24552325
8.24622559
8.24813571
8.24871791
8.24865977
8.24869717
8.24824017
8.24898274
8.25032032
8.24968031
8.24806115
8.24680560
8.24633796
8.24751237
8.24838699
8.24751749
8.24631290
8.24575254
8.24704210
8.25020498
8.25242146
8.25305071
8.25218360
8.25023450
8.25111693
8.25479540
8.25652225
8.25679694
8.25681851
8.25572257
8.25568537
8.25655830
8.25580159
8.25470635
8.25359576
8.25185935
8.25151759
8.25170458
8.25115201
8.25130357
8.25132292
8.25154000
8.25355331
8.25448062
8.25340789
8.25294327
8.25307043
8.25447083
8.25798133
8.26095925
8.26240385
8.26263141
8.26168479
8.26221102
8.26378957
8.26310168
8.26171983
8.26086343
8.25971953
8.26033186
8.26167355
8.26036337
8.25801902
8.25652762
8.25565901
8.25654394
8.25827710
8.25878521
8.25786507
8.25626769
8.25570253
8.25596408
8.25487623
8.25320743
8.25171963
8.25028138
8.25136316
8.25475637
8.25718767
8.25855963
8.25905954
8.25883056
8.25997738
8.26122310
8.26054893
8.25932785
8.25781695
8.25686133
8.25807690
8.25882387
8.25769621
8.25653322
8.25480768
8.25314598
8.25344601
8.25371171
8.25319914
8.25292101
8.25240421
8.25279416
8.25437272
8.25478255
8.25404941
8.25281303
8.25126316
8.25165237
8.25319986
8.25354117
8.25333655
8.25328335
8.25359819
8.25468729
8.25492655
8.25419701
8.25375460
8.25268618
8.25155680
8.25140272
8.25046393
8.24870239
8.24691833
8.24488805
8.24486896
8.24672709
8.24671448
8.24602607
8.24621031
8.24597694
8.24648722
8.24800542
8.24869630
8.24906493
8.24970024
8.25088573
8.25320736
8.25459804
8.25356332
8.25178619
8.24982912
8.24837935
8.24863971
8.24913317
8.24824232
8.24658312
8.24571644
8.24684829
8.24829242
8.24852397
8.24824970
8.24753978
8.24743992
8.24975031
8.25154019
8.25097447
8.25056694
8.24996569
8.24921822
8.25043712
8.25116974
8.24950418
8.24784091
8.24674353
8.24687838
8.24891600
8.25048580
8.25092975
8.25124398
8.25079649
8.25174830
8.25492471
8.25697343
8.25723305
8.25703458
8.25653557
8.25697464
8.25815163
8.25863727
8.25855036
8.25699551
8.25474497
8.25405635
8.25304084
8.25091448
8.25028096
8.25040618
8.25061379
8.25210645
8.25260738
8.25053437
8.24760333
8.24549195
8.24616755
8.24948080
8.25243477
8.25410238
8.25451767
8.25426168
8.25555670
8.25751096
8.25792953
8.25757137
8.25666699
8.25581226
8.25644007
8.25621660
8.25412913
8.25194657
8.24945508
8.24790094
8.24892014
8.24995056
8.25087051
8.25226084
8.25230426
8.25315402
8.25623257
8.25807658
8.25895864
8.26041701
8.26114375
8.26261870
8.26473532
8.26481920
8.26396535
8.26280835
8.26126042
8.26171659
8.26290290
8.26196908
8.26023754
8.25820179
8.25636749
8.25630553
8.25605382
8.25460317
8.25349417
8.25272115
8.25293036
8.25452777
8.25488766
8.25475349
8.25528391
8.25505260
8.25544069
8.25661490
8.25572465
8.25365337
8.25210903
8.25110032
8.25186677
8.25319962
8.25316921
8.25298190
8.25262522
8.25226508
8.25418467
8.25698517
8.25903231
8.26092947
8.26158218
8.26202548
8.26407633
8.26514039
8.26389022
8.26171697
8.25920113
8.25813664
8.25870265
8.25844976
8.25793893
8.25803325
8.25792904
8.25894400
8.26120928
8.26304234
8.26443333
8.26491051
8.26516225
8.26671942
8.26786819
8.26742548
8.26639970
8.26451700
8.26400845
8.26638085
8.26781074
8.26690061
8.26563630
8.26428569
8.26424764
8.26576528
8.26601369
8.26520589
8.26444470
8.26320646
8.26302717
8.26401015
8.26417084
8.26358965
8.26271032
8.26217257
8.26289646
8.26273016
8.26118527
8.26019720
8.25939233
8.25953376
8.26176078
8.26276773
8.26176825
8.26137054
8.26138429
8.26214215
8.26405084
8.26498195
8.26463642
8.26350281
8.26185340
8.26145929
8.26139027
8.25928008
8.25629095
8.25299299
8.24986766
8.24977211
8.25173083
8.25297943
8.25394792
8.25411375
8.25287808
8.25198908
8.25177996
8.25187398
8.25215903
8.25191358
8.25234342
8.25375805
8.25374929
8.25291191
8.25271266
8.25273757
8.25406369
8.25628391
8.25712442
8.25692750
8.25631639
8.25599422
8.25731190
8.25868533
8.25927669
8.26024216
8.26074248
8.26136011
8.26324981
8.26341081
8.26139063
8.25911660
8.25607613
8.25409565
8.25446862
8.25453542
8.25457297
8.25513293
8.25461091
8.25466629
8.25588126
8.25570678
8.25530584
8.25551256
8.25536183
8.25644363
8.25796965
8.25737961
8.25591338
8.25460287
8.25362901
8.25347335
8.25220845
8.24959586
8.24709431
8.24391658
8.24174705
8.24259060
8.24343209
8.24294176
8.24268701
8.24278698
8.24457820
8.24758334
8.24835666
8.24745112
8.24626547
8.24454186
8.24427790
8.24538623
8.24482662
8.24295775
8.24138555
8.24132485
8.24384085
8.24708995
8.24904464
8.25026251
8.25094913
8.25204999
8.25412253
8.25513678
8.25449052
8.25335829
8.25256019
8.25382452
8.25627737
8.25640964
8.25445277
8.25195390
8.24932939
8.24830598
8.24859967
8.24870223
8.24874318
8.24821207
8.24752417
8.24852929
8.24956806
8.24938937
8.24941586
8.24916062
8.24857020
8.24919603
8.25012164
8.25053017
8.25074984
8.25085932
8.25184231
8.25356549
8.25452844
8.25464851
8.25365620
8.25228716
8.25333108
8.25611337
8.25817788
8.25953449
8.26022347
8.26115630
8.26347531
8.26519446
8.26566727
8.26567961
8.26447856
8.26350256
8.26373757
8.26285370
8.26084591
8.25862954
8.25574631
8.25442821
8.25506537
8.25503405
8.25498856
8.25502605
8.25423963
8.25492954
8.25714477
8.25863019
8.26014564
8.26148211
8.26269530
8.26557327
8.26830545
8.26951780
8.27057060
8.27014930
8.26862698
8.26863504
8.26869646
8.26745652
8.26520114
8.26181804
8.25988538
8.26012387
8.25892055
8.25664581
8.25518394
8.25343310
8.25301980
8.25450505
8.25494896
8.25462128
8.25470439
8.25512746
8.25702126
8.25952765
8.26053896
8.26062048
8.26055809
8.26140955
8.26354990
8.26438578
8.26286534
8.26038994
8.25778167
8.25700954
8.25806525
8.25783133
8.25623484
8.25433209
8.25246119
8.25271537
8.25468790
8.25579278
8.25622525
8.25587731
8.25480919
8.25510962
8.25612206
8.25655593
8.25702521
8.25677993
8.25660005
8.25849130
8.26013174
8.26025807
8.26070906
8.26142918
8.26290336
8.26530703
8.26617897
8.26510232
8.26294736
8.26009231
8.25931721
8.26049157
8.26085041
8.26087998
8.26105259
8.26110389
8.26278925
8.26494733
8.26491828
8.26384390
8.26229221
8.26081769
8.26136544
8.26229273
8.26197863
8.26117224
8.25978705
8.25925172
8.26084247
8.26239946
8.26281213
8.26235377
8.26121496
8.26147908
8.26278550
8.26283254
8.26256689
8.26273030
8.26298232
8.26476281
8.26667440
8.26647322
8.26500126
8.26318230
8.26248373
8.26433580
8.26561967
8.26453254
8.26295075
8.26137143
8.26089632
8.26246763
8.26361781
8.26366169
8.26287256
8.26100058
8.26041039
8.26137112
8.26149992
8.26117974
8.26023128
8.25797492
8.25728876
8.25788582
8.25697382
8.25641036
8.25714288
8.25790614
8.25938965
8.26032125
8.25883103
8.25668871
8.25555286
8.25628932
8.25837112
8.25954998
8.25918886
8.25824265
8.25779053
8.26003159
8.26405445
8.26633938
8.26674852
8.26550197
8.26333385
8.26361741
8.26536507
8.26536601
8.26516295
8.26495297
8.26358024
8.26303348
8.26357758
8.26309820
8.26232917
8.26221474
8.26259824
8.26307344
8.26267485
8.26140131
8.25907584
8.25608362
8.25515990
8.25605319
8.25642675
8.25693589
8.25755145
8.25784276
8.25937776
8.26097217
8.26078467
8.26009959
8.25874940
8.25728126
8.25797527
8.25884456
8.25796082
8.25666131
8.25443015
8.25184327
8.25128084
8.25132392
8.25093733
8.25080038
8.25000774
8.24996767
8.25212828
8.25387870
8.25412236
8.25415301
8.25465400
8.25642899
8.25859399
8.25924218
8.25874575
8.25781689
8.25795281
8.26037003
8.26225019
8.26152065
8.25947147
8.25665269
8.25501500
8.25571578
8.25554660
8.25360556
8.25166684
8.24978331
8.24914314
8.25062898
8.25218538
8.25301000
8.25282389
8.25188310
8.25309695
8.25656011
8.25923676
8.26078144
8.26137024
8.26148844
8.26265184
8.26342390
8.26298084
8.26319059
8.26392531
8.26532184
8.26732238
8.26761543
8.26649236
8.26526542
8.26348934
8.26332506
8.26480876
8.26474534
8.26437496
8.26439200
8.26299334
8.26321625
8.26643308
8.26861914
8.26935454
8.26993738
8.27033641
8.27183599
8.27366283
8.27383336
8.27254060
8.26982148
8.26811133
8.26963628
8.27097356
8.27015532
8.26973650
8.27024937
8.27175734
8.27384010
8.27498268
8.27586808
8.27628196
8.27569135
8.27707618
8.27904866
8.27750338
8.27503947
8.27353173
8.27196753
8.27246429
8.27383647
8.27279597
8.27121387
8.27045813
8.27025932
8.27221506
8.27520566
8.27674918
8.27669876
8.27546161
8.27487684
8.27596872
8.27668063
8.27673400
8.27595040
8.27334881
8.27166360
8.27187540
8.27096650
8.26964556
8.26883839
8.26755998
8.26779722
8.26973870
8.27069069
8.27099901
8.27159043
8.27254361
8.27413548
8.27538317
8.27602820
8.27602974
8.27451033
8.27329587
8.27383636
8.27368709
8.27270559
8.27211730
8.27130016
8.27185714
8.27360397
8.27332893
8.27100275
8.26757753
8.26418657
8.26380228
8.26484977
8.26416737
8.26354758
8.26316613
8.26250990
8.26346100
8.26475773
8.26512483
8.26601519
8.26668983
8.26775025
8.27076363
8.27264195
8.27220009
8.27100832
8.26866841
8.26713886
8.26743193
8.26676416
8.26513172
8.26341970
8.26107966
8.26022384
8.26071259
8.25962598
8.25781552
8.25609931
8.25459102
8.25579935
8.25843926
8.25912323
8.25812572
8.25591097
8.25396564
8.25483489
8.25656667
8.25721678
8.25720052
8.25596920
8.25504935
8.25603352
8.25674379
8.25716687
8.25789480
8.25769322
8.25782766
8.25862431
8.25828641
8.25763525
8.25685208
8.25586162
8.25684458
8.25822512
8.25725384
8.25574459
8.25474739
8.25429592
8.25517939
8.25571492
8.25499988
8.25391885
8.25252818
8.25268531
8.25477201
8.25541200
8.25413700
8.25179800
8.24851175
8.24750311
8.24930169
8.25087791
8.25237628
8.25295897
8.25191078
8.25257503
8.25457871
8.25486530
8.25437077
8.25388382
8.25349474
8.25363432
8.25214325
8.24956595
8.24830988
8.24715918
8.24721866
8.25058533
8.25364421
8.25472892
8.25571063
8.25633839
8.25752460
8.25945064
8.25888990
8.25639439
8.25375657
8.25119440
8.25099524
8.25303857
8.25387069
8.25399216
8.25467065
8.25529706
8.25689218
8.25922584
8.26024273
8.25961401
8.25821207
8.25758243
8.25746964
8.25618519
8.25449820
8.25319281
8.25149764
8.25112516
8.25227967
8.25235161
8.25164208
8.25141444
8.25200040
8.25409627
8.25582119
8.25485918
8.25236669
8.24966645
8.24842100
8.25004642
8.25220314
8.25390531
8.25562698
8.25570115
8.25582016
8.25815317
8.25976922
8.25987252
8.25979380
8.25890385
8.25889859
8.26058956
8.26075625
8.25954648
8.25874044
8.25869463
8.26053253
8.26284890
8.26314616
8.26279120
8.26222674
8.26150978
8.26292025
8.26484335
8.26470256
8.26408411
8.26391392
8.26447558
8.26656653
8.26783031
8.26642065
8.26360262
8.26036660
8.25855850
8.25922636
8.26088159
8.26205703
8.26181170
8.26088468
8.26203261
8.26453880
8.26577745
8.26612322
8.26582117
8.26564687
8.26680913
8.26636356
8.26335184
8.26080191
8.25903934
8.25866762
8.26070324
8.26246231
8.26299368
8.26373465
8.26422631
8.26513528
8.26717594
8.26860637
8.26930411
8.26911514
8.26766432
8.26714794
8.26671231
8.26416814
8.26145378
8.25869553
8.25575965
8.25569026
8.25718564
8.25697137
8.25603341
8.25511762
8.25481946
8.25595931
8.25661255
8.25639966
8.25659986
8.25631391
8.25700073
8.25936348
8.26008892
8.25919355
8.25861011
8.25767473
8.25743509
8.25793804
8.25757355
8.25698037
8.25627602
8.25581500
8.25810198
8.26109736
8.26171954
8.26140512
8.26045492
8.25988029
8.26192268
8.26424226
8.26493135
8.26495471
8.26355941
8.26254046
8.26409590
8.26532389
8.26507401
8.26460327
8.26307380
8.26186289
8.26242145
8.26284117
8.26260975
8.26202883
8.26154163
8.26290816
8.26425531
8.26328078
8.26156930
8.25949822
8.25739483
8.25724863
8.25753497
8.25641045
8.25512768
8.25350199
8.25209249
8.25243438
8.25278963
8.25182136
8.25056296
8.24956570
8.25029904
8.25240558
8.25335494
8.25321774
8.25289842
8.25288475
8.25424204
8.25544747
8.25482475
8.25399024
8.25307968
8.25195881
8.25207769
8.25227329
8.25176786
8.25156714
8.25114486
8.25142105
8.25364155
8.25525756
8.25575368
8.25676836
8.25817871
8.26083241
8.26430427
8.26614633
8.26618168
8.26502561
8.26388412
8.26514267
8.26694526
8.26718666
8.26725966
8.26672268
8.26647681
8.26911903
8.27174745
8.27208933
8.27223559
8.27185942
8.27139522
8.27273636
8.27366924
8.27275719
8.27103686
8.26876022
8.26739856
8.26705575
8.26589190
8.26458434
8.26290451
8.26065307
8.26041485
8.26065330
8.25903790
8.25781287
8.25700871
8.25660403
8.25851046
8.25998833
8.25913301
8.25852505
8.25787741
8.25783032
8.26029087
8.26243036
8.26325796
8.26439761
8.26478311
8.26528016
8.26693640
8.26696949
8.26633712
8.26685105
8.26706594
8.26808093
8.26959540
8.26885707
8.26782877
8.26777929
8.26761821
8.26910655
8.27129957
8.27095047
8.26912555
8.26689967
8.26509852
8.26584686
8.26724580
8.26689166
8.26549137
8.26322202
8.26198440
8.26334067
8.26434613
8.26421993
8.26416004
8.26357710
8.26410746
8.26623442
8.26677089
8.26580352
8.26490734
8.26401465
8.26401873
8.26478525
8.26540652
8.26611808
8.26614034
8.26640024
8.26859100
8.27012689
8.26947216
8.26863030
8.26806061
8.26874465
8.27099116
8.27229270
8.27233803
8.27175250
8.27029203
8.27081137
8.27389043
8.27607183
8.27654156
8.27561633
8.27391247
8.27371325
8.27426373
8.27400564
8.27399504
8.27332243
8.27194294
8.27228725
8.27251106
8.27073127
8.26845130
8.26580895
8.26422152
8.26512325
8.26555301
8.26456048
8.26336517
8.26185209
8.26170138
8.26295879
8.26252367
8.26124581
8.26016357
8.25876775
8.25921876
8.26117460
8.26141971
8.26061079
8.25939062
8.25763248
8.25758350
8.25838245
8.25772192
8.25716138
8.25754737
8.25871157
8.26048226
8.26108990
8.26070119
8.26022772
8.25916612
8.25934474
8.26111327
8.26103616
8.25955317
8.25881134
8.25887567
8.26116106
8.26506598
8.26760364
8.26842258
8.26760493
8.26617295
8.26659254
8.26712069
8.26550837
8.26351437
8.26173333
8.26030857
8.26015217
8.25987740
8.25899545
8.25841891
8.25794353
8.25860532
8.25993354
8.25974473
8.25870629
8.25721151
8.25529767
8.25591915
8.25801669
8.25821752
8.25814881
8.25871318
8.25870402
8.25969580
8.26124197
8.26085882
8.25924954
8.25747267
8.25635222
8.25663493
8.25705715
8.25719462
8.25726680
8.25631523
8.25604726
8.25706618
8.25690690
8.25600842
8.25602099
8.25670869
8.25902362
8.26215378
8.26352353
8.26343494
8.26206574
8.26018791
8.26060848
8.26198769
8.26200212
8.26189601
8.26171401
8.26228411
8.26550583
8.26842488
8.26858033
8.26686624
8.26373015
8.26164048
8.26186279
8.26120284
8.25965803
8.25930660
8.25964454
8.26146134
8.26417561
8.26529812
8.26574148
8.26580629
8.26490270
8.26521942
8.26652887
8.26710712
8.26742787
8.26640027
8.26441221
8.26440203
8.26499923
8.26437250
8.26375580
8.26295553
8.26273325
8.26405538
8.26508144
8.26578102
8.26659265
8.26686602
8.26826741
8.27052593
8.27152843
8.27244266
8.27281183
8.27158387
8.27121811
8.27107322
8.26907725
8.26681809
8.26434768
8.26194092
8.26205342
8.26243950
8.26133445
8.26063121
8.25985648
8.25952223
8.26165686
8.26388081
8.26432691
8.26370526
8.26214836
8.26145585
8.26214398
8.26178624
8.26045908
8.25889508
8.25692888
8.25631851
8.25704939
8.25749426
8.25809397
8.25834506
8.25803590
8.25903073
8.25978568
8.25881161
8.25759625
8.25566487
8.25353262
8.25295795
8.25257848
8.25194838
8.25185921
8.25250024
8.25536174
8.25876340
8.25860264
8.25638379
8.25473416
8.25351241
8.25418472
8.25605723
8.25606303
8.25455385
8.25238837
8.25030759
8.25012390
8.25048554
8.25017621
8.25021095
8.24985608
8.24994366
8.25193053
8.25312584
8.25291435
8.25312801
8.25359430
8.25580292
8.25968508
8.26149996
8.26146773
8.26076404
8.25869485
8.25773152
8.25850109
8.25801184
8.25661211
8.25533277
8.25383066
8.25302212
8.25275493
8.25219061
8.25199766
8.25243006
8.25476335
8.25945280
8.26280311
8.26415186
8.26489379
8.26370662
8.26200944
8.26200739
8.26150942
8.26006275
8.25905680
8.25855827
8.25959861
8.26157423
8.26174893
8.26033882
8.25820379
8.25623777
8.25619182
8.25698205
8.25705521
8.25748084
8.25793511
8.25867121
8.26065573
8.26220993
8.26276475
8.26264787
8.26078672
8.25913993
8.25876604
8.25712156
8.25496428
8.25382247
8.25331394
8.25480564
8.25712016
8.25733113
8.25650105
8.25524311
8.25409892
8.25616237
8.26004015
8.26274754
8.26452851
8.26480495
8.26491829
8.26694169
8.26762943
8.26612163
8.26487823
8.26253656
8.26026792
8.26042750
8.26016428
8.25925682
8.26034382
8.26189619
8.26423939
8.26777021
8.26921212
8.26860824
8.26803045
8.26730381
8.26722322
8.26737862
8.26628316
8.26533813
8.26483132
8.26447076
8.26568586
8.26650389
8.26485670
8.26227920
8.25950947
8.25830464
8.25998306
8.26137231
8.26162498
8.26249182
8.26293941
8.26351184
8.26531948
8.26605237
8.26517268
8.26379211
8.26180229
8.26084015
8.26135372
8.26087642
8.25971578
8.25947204
8.26065675
8.26352280
8.26657211
8.26858905
8.26950672
8.26898585
8.26889791
8.27081449
8.27253068
8.27322783
8.27361599
8.27339163
8.27359878
8.27440266
8.27374576
8.27190275
8.26933014
8.26644213
8.26492181
8.26352623
8.26072979
8.25840541
8.25672001
8.25523354
8.25507686
8.25508732
8.25511568
8.25602934
8.25621481
8.25664586
8.25820786
8.25743394
8.25493283
8.25360080
8.25255214
8.25303766
8.25615279
8.25862830
8.25970888
8.26013158
8.26028039
8.26242510
8.26577074
8.26755912
8.26818372
8.26715305
8.26553660
8.26665456
8.26770372
8.26633435
8.26552224
8.26453226
8.26246629
8.26220131
8.26231514
8.26099123
8.25942964
8.25753262
8.25667081
8.25785334
8.25845881
8.25832440
8.25867198
8.25874229
8.25965508
8.26164219
8.26248759
8.26201578
8.25998926
8.25761061
8.25834541
8.26034892
8.26043658
8.26021681
8.25993636
8.25954815
8.26120908
8.26323036
8.26312919
8.26173659
8.25916525
8.25661782
8.25585691
8.25534119
8.25381172
8.25129329
8.24847244
8.24755675
8.24866113
8.25008589
8.25141634
8.25172871
8.25155065
8.25286796
8.25389646
8.25344009
8.25288125
8.25125285
8.24970661
8.25033015
8.25041735
8.24888718
8.24751731
8.24555338
8.24426590
8.24455838
8.24327816
8.24103035
8.24013041
8.23974937
8.24123228
8.24468919
8.24663928
8.24652210
8.24481281
8.24233476
8.24194262
8.24267323
8.24245465
8.24283338
8.24313199
8.24304929
8.24498316
8.24725314
8.24818560
8.24915271
8.24907629
8.24845879
8.24893560
8.24846907
8.24718315
8.24711990
8.24747589
8.24862593
8.25048945
8.25027328
8.24897173
8.24825797
8.24722903
8.24745210
8.24908947
8.24961292
8.24924538
8.24896960
8.24914568
8.25041444
8.25133668
8.25128042
8.25099137
8.24955415
8.24847702
8.24933051
8.24952114
8.24891647
8.24896798
8.24823808
8.24810682
8.25023474
8.25142265
8.25106819
8.25098286
8.25116975
8.25213199
8.25381275
8.25424303
8.25295423
8.25067333
8.24943547
8.25024422
8.25091098
8.25124961
8.25184680
8.25081981
8.25001980
8.25197604
8.25353940
8.25378443
8.25429433
8.25421963
8.25424301
8.25495611
8.25424685
8.25309678
8.25232495
8.25150101
8.25269562
8.25533758
8.25692542
8.25850862
8.26005668
8.26097298
8.26261818
8.26365656
8.26334119
8.26305077
8.26200503
8.26121509
8.26240647
8.26260744
8.26103456
8.25942108
8.25748539
8.25744901
8.25990437
8.26064784
8.25950669
8.25802081
8.25577573
8.25548518
8.25783364
8.25912113
8.25894233
8.25824760
8.25757309
8.25883995
8.26104188
8.26306501
8.26544837
8.26573462
8.26414683
8.26418729
8.26420146
8.26278167
8.26240417
8.26232215
8.26166817
8.26123919
8.25975486
8.25807656
8.25753117
8.25698866
8.25757365
8.25937336
8.25956605
8.25837338
8.25748400
8.25736063
8.25915008
8.26161834
8.26226787
8.26149012
8.25996817
8.25859108
8.25907228
8.26040663
8.26156285
8.26241884
8.26218098
8.26218121
8.26293848
8.26245978
8.26130153
8.26027884
8.25906368
8.25934844
8.26013042
8.25871341
8.25641297
8.25389213
8.25178815
8.25257332
8.25423375
8.25437727
8.25450883
8.25390877
8.25298097
8.25441956
8.25590638
8.25523280
8.25349099
8.25064464
8.24882030
8.24958086
8.25017992
8.25052744
8.25114736
8.25022018
8.24985635
8.25114815
8.25089499
8.24961063
8.24811293
8.24619021
8.24622497
8.24758230
8.24793395
8.24871074
8.24933803
8.24959860
8.25211047
8.25453161
8.25451997
8.25470097
8.25506557
8.25572405
8.25875753
8.26165110
8.26191853
8.26044780
8.25781739
8.25641935
8.25723944
8.25771027
8.25754559
8.25684277
8.25574987
8.25682485
8.25866651
8.25836333
8.25773135
8.25714336
8.25602293
8.25669282
8.25774924
8.25713257
8.25682841
8.25755357
8.25876822
8.26024850
8.26053330
8.26006190
8.25956038
8.25830331
8.25821165
8.25855810
8.25620473
8.25318230
8.25104493
8.24870671
8.24892631
8.25179331
8.25347627
8.25437704
8.25532755
8.25592141
8.25787331
8.25977464
8.25937110
8.25803979
8.25627317
8.25561757
8.25778580
8.25987086
8.26009728
8.25914300
8.25684981
8.25537187
8.25582721
8.25566102
8.25534420
8.25547035
8.25466115
8.25494092
8.25602207
8.25444448
8.25235066
8.25210295
8.25267951
8.25461365
8.25716064
8.25785574
8.25704610
8.25594370
8.25611341
8.25840107
8.26033441
8.26085478
8.26034418
8.25847665
8.25822940
8.26044132
8.26132691
8.26073923
8.25935550
8.25667727
8.25598699
8.25762773
8.25833113
8.25944141
8.26094543
8.26141931
8.26331124
8.26543826
8.26516066
8.26468649
8.26399133
8.26284730
8.26358233
8.26400612
8.26227562
8.26035289
8.25832317
8.25768157
8.25999165
8.26158517
8.26121919
8.26052833
8.25921952
8.25895065
8.26029234
8.26029473
8.25986496
8.26057668
8.26108641
8.26259982
8.26492205
8.26522595
8.26398938
8.26265189
8.26185224
8.26285723
8.26416345
8.26384594
8.26281653
8.26161154
8.26115458
8.26194143
8.26218246
8.26205943
8.26246330
8.26296914
8.26495453
8.26817414
8.26934541
8.26854977
8.26740372
8.26670733
8.26788791
8.26986630
8.27052264
8.27039659
8.26926778
8.26744701
8.26686666
8.26673537
8.26619076
8.26636616
8.26706269
8.26833142
8.26982325
8.26959050
8.26796565
8.26571922
8.26289698
8.26162177
8.26186619
8.26152414
8.26121601
8.26063349
8.25959484
8.26047066
8.26199253
8.26179308
8.26202306
8.26311125
8.26421758
8.26624761
8.26763839
8.26692042
8.26555287
8.26430531
8.26453231
8.26648015
8.26744538
8.26733861
8.26687574
8.26493951
8.26369063
8.26505750
8.26686842
8.26822999
8.26861009
8.26816035
8.26929297
8.27153345
8.27279194
8.27317204
8.27211610
8.27022508
8.26928076
8.26828966
8.26696100
8.26598479
8.26461966
8.26375486
8.26374158
8.26272590
8.26172985
8.26092839
8.25984161
8.26094678
8.26322897
8.26392050
8.26437462
8.26382801
8.26200908
8.26187890
8.26126414
8.25845015
8.25662816
8.25572387
8.25606565
8.25907379
8.26122067
8.26155183
8.26192098
8.26092404
8.26013383
8.26143722
8.26212541
8.26246137
8.26198216
8.25904471
8.25791519
8.25948764
8.25973688
8.25965505
8.25932575
8.25792861
8.25865793
8.26066910
8.26131131
8.26190488
8.26130970
8.26006004
8.26090236
8.26069443
8.25870924
8.25731136
8.25529083
8.25475907
8.25674530
8.25646510
8.25530694
8.25524946
8.25383397
8.25393894
8.25659145
8.25720636
8.25616309
8.25424024
8.25105589
8.24950298
8.24844620
8.24650577
8.24569565
8.24355327
8.24077674
8.24153320
8.24249487
8.24249946
8.24373940
8.24342525
8.24339890
8.24580672
8.24676457
8.24751383
8.24846139
8.24685281
8.24725398
8.24922130
8.24827587
8.24803380
8.24665623
8.24294352
8.24357742
8.24413628
8.24262773
8.24559889
8.24636786
8.24591289
8.25145359
8.25288363
8.25318041
8.25854123
8.25418573
8.25349855
8.26309538
8.25404222
8.25567215
8.27699466
8.23225046
