2.87316226
2.87562220
2.87233089
2.87402554
2.87443247
2.87317276
2.87416938
2.87431087
2.87370353
2.87427233
2.87412828
2.87379469
2.87448817
2.87465912
2.87458194
2.87488196
2.87459492
2.87436838
2.87462766
2.87461069
2.87470238
2.87481005
2.87431351
2.87408952
2.87440488
2.87445581
2.87436374
2.87424380
2.87404047
2.87431070
2.87493281
2.87536793
2.87561196
2.87553907
2.87538244
2.87555976
2.87567702
2.87560240
2.87545378
2.87488401
2.87422381
2.87393876
2.87370854
2.87360864
2.87370832
2.87361464
2.87365419
2.87393650
2.87388607
2.87367717
2.87354252
2.87334997
2.87344480
2.87382085
2.87398719
2.87391014
2.87367176
2.87344031
2.87347038
2.87348777
2.87342684
2.87345882
2.87332774
2.87317965
2.87340939
2.87367108
2.87373754
2.87366586
2.87336757
2.87315974
2.87318519
2.87303927
2.87276459
2.87246046
2.87210830
2.87210167
2.87221836
2.87200997
2.87184729
2.87169791
2.87137404
2.87140782
2.87182517
2.87193526
2.87177754
2.87153017
2.87125292
2.87124453
2.87136270
2.87132539
2.87123171
2.87106504
2.87112452
2.87159589
2.87197825
2.87214743
2.87225751
2.87214206
2.87208546
2.87222862
2.87214867
2.87194574
2.87181350
2.87175783
2.87203840
2.87239324
2.87245463
2.87250451
2.87255891
2.87264644
2.87302825
2.87334644
2.87345073
2.87369210
2.87390187
2.87415413
2.87474108
2.87509873
2.87486534
2.87437322
2.87384865
2.87364062
2.87377920
2.87388126
2.87389971
2.87366657
2.87313067
2.87293044
2.87309058
2.87321595
2.87341828
2.87348530
2.87333452
2.87350149
2.87365443
2.87341901
2.87325695
2.87303675
2.87266263
2.87266475
2.87275756
2.87263772
2.87261024
2.87261265
2.87286497
2.87362390
2.87425433
2.87446695
2.87441373
2.87409848
2.87401284
2.87434158
2.87453146
2.87453434
2.87444186
2.87423522
2.87436775
2.87473899
2.87486875
2.87496871
2.87505906
2.87509174
2.87540407
2.87575902
2.87581827
2.87576249
2.87555035
2.87527252
2.87513858
2.87489359
2.87452591
2.87419029
2.87381533
2.87371919
2.87388899
2.87372017
2.87329403
2.87287264
2.87241915
2.87231375
2.87265537
2.87297907
2.87323742
2.87343445
2.87360698
2.87403555
2.87457174
2.87500595
2.87543978
2.87564763
2.87569784
2.87588372
2.87595534
2.87579012
2.87553286
2.87513162
2.87486084
2.87479073
2.87450894
2.87414879
2.87392763
2.87373504
2.87378497
2.87399881
2.87402847
2.87387714
2.87352748
2.87328966
2.87359791
2.87397633
2.87409224
2.87422591
2.87417595
2.87402096
2.87421910
2.87442797
2.87440600
2.87435144
2.87424327
2.87436537
2.87476480
2.87483745
2.87473278
2.87481138
2.87487927
2.87508542
2.87540201
2.87540789
2.87523570
2.87495561
2.87456412
2.87452055
2.87474073
2.87481670
2.87490816
2.87492259
2.87483252
2.87502116
2.87529878
2.87534513
2.87531239
2.87529329
2.87553334
2.87607317
2.87640748
2.87647098
2.87644046
2.87622192
2.87614016
2.87626019
2.87612002
2.87576373
2.87542418
2.87522325
2.87540276
2.87572871
2.87587535
2.87595297
2.87587606
2.87576200
2.87599138
2.87626676
2.87626530
2.87599873
2.87544425
2.87505960
2.87504628
2.87484241
2.87444714
2.87409119
2.87361290
2.87330165
2.87326178
2.87298033
2.87252506
2.87219293
2.87214228
2.87259266
2.87328174
2.87376866
2.87418658
2.87444236
2.87447547
2.87466125
2.87480744
2.87470999
2.87459619
2.87448535
2.87453013
2.87489770
2.87519514
2.87535609
2.87545212
2.87532683
2.87533666
2.87550514
2.87531136
2.87502834
2.87493891
2.87478164
2.87481296
2.87510370
2.87520429
2.87513990
2.87507243
2.87505799
2.87516001
2.87511585
2.87486882
2.87452325
2.87400279
2.87375738
2.87397229
2.87390823
2.87349911
2.87308947
2.87256328
2.87221076
2.87228635
2.87236809
2.87240102
2.87238572
2.87224068
2.87244374
2.87288042
2.87302012
2.87303817
2.87297208
2.87282099
2.87306790
2.87352898
2.87368056
2.87364574
2.87341508
2.87315008
2.87331587
2.87364639
2.87384814
2.87402304
2.87409206
2.87421070
2.87455434
2.87474278
2.87458948
2.87419156
2.87371375
2.87365025
2.87389138
2.87393039
2.87381945
2.87360798
2.87333486
2.87341813
2.87374586
2.87402617
2.87435688
2.87451706
2.87457946
2.87494590
2.87521848
2.87506336
2.87474438
2.87442348
2.87438014
2.87466185
2.87471407
2.87455452
2.87449724
2.87438089
2.87429331
2.87440810
2.87460345
2.87481540
2.87492600
2.87490476
2.87504469
2.87525731
2.87526772
2.87508907
2.87473696
2.87453140
2.87474391
2.87489291
2.87469945
2.87435941
2.87399535
2.87398250
2.87431196
2.87442615
2.87432495
2.87410514
2.87370156
2.87342519
2.87327571
2.87306385
2.87297338
2.87278695
2.87251104
2.87274883
2.87315423
2.87316237
2.87317021
2.87324099
2.87337335
2.87382355
2.87425111
2.87439422
2.87432101
2.87396174
2.87382402
2.87417585
2.87440365
2.87450146
2.87460926
2.87443103
2.87444811
2.87483507
2.87491654
2.87480557
2.87473810
2.87450990
2.87450443
2.87480800
2.87492759
2.87486840
2.87469119
2.87451474
2.87460463
2.87462032
2.87439545
2.87425347
2.87406508
2.87396121
2.87419354
2.87429596
2.87422291
2.87430089
2.87433802
2.87437967
2.87445124
2.87418046
2.87369313
2.87324641
2.87287878
2.87292909
2.87323722
2.87336485
2.87338846
2.87326655
2.87316329
2.87350231
2.87387011
2.87392929
2.87387670
2.87355138
2.87332549
2.87373702
2.87413517
2.87414496
2.87405908
2.87382433
2.87373238
2.87401623
2.87416618
2.87413482
2.87412795
2.87409265
2.87428652
2.87460132
2.87452962
2.87420427
2.87374300
2.87325724
2.87314689
2.87308498
2.87273665
2.87248372
2.87228340
2.87221902
2.87272008
2.87335939
2.87372089
2.87406796
2.87439239
2.87476070
2.87526388
2.87554049
2.87555930
2.87541001
2.87502793
2.87474241
2.87458543
2.87428416
2.87406194
2.87386404
2.87355181
2.87360742
2.87386816
2.87385843
2.87377743
2.87368699
2.87369977
2.87409671
2.87444345
2.87445603
2.87445795
2.87444086
2.87451998
2.87489639
2.87519002
2.87528098
2.87527939
2.87510385
2.87514640
2.87552195
2.87571581
2.87569879
2.87561853
2.87550203
2.87559322
2.87568255
2.87559679
2.87565065
2.87571687
2.87574030
2.87604740
2.87628400
2.87613920
2.87593081
2.87572188
2.87558598
2.87551735
2.87515582
2.87461313
2.87405934
2.87327613
2.87260265
2.87222863
2.87175181
2.87134735
2.87122283
2.87122973
2.87163998
2.87231702
2.87267807
2.87283285
2.87297794
2.87314207
2.87358514
2.87414770
2.87456369
2.87477372
2.87462549
2.87441185
2.87438670
2.87409769
2.87358664
2.87320001
2.87286576
2.87281368
2.87313383
2.87337299
2.87347264
2.87346826
2.87336051
2.87352207
2.87374376
2.87357701
2.87337471
2.87329210
2.87325768
2.87346317
2.87362050
2.87346072
2.87326173
2.87306549
2.87309039
2.87352718
2.87378739
2.87372427
2.87364222
2.87347279
2.87349189
2.87383663
2.87395402
2.87378757
2.87356164
2.87327780
2.87325006
2.87346378
2.87341406
2.87314614
2.87280017
2.87246017
2.87250276
2.87282003
2.87312422
2.87344670
2.87365249
2.87373723
2.87391714
2.87392727
2.87372929
2.87358771
2.87344820
2.87339316
2.87353056
2.87360710
2.87353946
2.87326053
2.87290088
2.87294524
2.87315834
2.87299508
2.87271907
2.87243338
2.87213859
2.87229398
2.87270497
2.87291554
2.87306302
2.87309020
2.87301409
2.87310809
2.87312899
2.87296021
2.87272354
2.87248169
2.87261828
2.87309790
2.87330407
2.87335524
2.87357337
2.87375057
2.87406068
2.87457570
2.87479940
2.87466594
2.87437875
2.87418393
2.87433407
2.87444247
2.87416780
2.87369882
2.87309869
2.87268414
2.87281987
2.87308284
2.87310847
2.87301892
2.87285111
2.87283364
2.87303560
2.87313689
2.87317055
2.87308636
2.87286158
2.87298055
2.87320465
2.87298945
2.87274467
2.87267175
2.87265660
2.87308784
2.87374668
2.87409347
2.87424810
2.87425375
2.87426098
2.87448497
2.87447881
2.87423674
2.87418724
2.87410332
2.87403412
2.87424184
2.87434903
2.87425549
2.87413371
2.87394323
2.87401167
2.87428722
2.87428546
2.87421384
2.87406297
2.87366787
2.87347024
2.87339438
2.87305316
2.87268367
2.87231932
2.87201714
2.87215543
2.87234635
2.87224387
2.87214366
2.87208047
2.87217585
2.87252188
2.87261770
2.87244579
2.87228860
2.87205372
2.87213520
2.87261114
2.87284509
2.87299091
2.87328762
2.87350150
2.87391767
2.87450339
2.87469800
2.87465254
2.87465118
2.87475770
2.87515563
2.87553217
2.87553058
2.87535840
2.87507202
2.87487248
2.87506424
2.87534678
2.87546998
2.87542478
2.87521106
2.87519046
2.87534002
2.87516212
2.87480599
2.87441321
2.87396594
2.87402113
2.87448293
2.87460349
2.87445538
2.87435050
2.87435975
2.87467111
2.87498378
2.87497203
2.87483604
2.87459700
2.87435511
2.87432154
2.87424186
2.87407095
2.87394608
2.87376596
2.87380011
2.87412708
2.87430221
2.87430010
2.87426715
2.87416442
2.87427867
2.87456315
2.87468369
2.87475956
2.87475321
2.87472070
2.87497117
2.87512411
2.87488272
2.87459661
2.87423577
2.87392747
2.87405491
2.87425135
2.87422854
2.87417887
2.87412755
2.87427706
2.87468212
2.87493897
2.87497765
2.87478944
2.87447848
2.87462033
2.87490860
2.87464925
2.87418733
2.87370275
2.87312991
2.87300445
2.87312668
2.87295771
2.87272951
2.87252698
2.87238346
2.87258504
2.87282054
2.87294976
2.87325161
2.87358301
2.87394569
2.87441829
2.87451064
2.87418560
2.87388724
2.87373048
2.87384857
2.87413790
2.87422929
2.87414594
2.87389582
2.87365180
2.87383459
2.87415231
2.87421137
2.87415027
2.87396645
2.87399404
2.87454784
2.87502168
2.87518125
2.87528264
2.87509240
2.87487593
2.87497775
2.87490918
2.87456051
2.87415579
2.87369002
2.87342181
2.87323580
2.87284057
2.87264777
2.87269671
2.87277861
2.87320426
2.87362108
2.87360805
2.87355551
2.87347517
2.87340301
2.87365880
2.87372542
2.87340042
2.87321711
2.87305986
2.87301052
2.87346489
2.87390819
2.87406044
2.87420618
2.87417942
2.87412150
2.87419598
2.87410659
2.87400593
2.87407698
2.87422283
2.87465151
2.87507495
2.87507093
2.87498601
2.87485028
2.87459109
2.87467502
2.87488079
2.87479479
2.87464870
2.87450365
2.87444962
2.87460816
2.87461210
2.87440069
2.87414181
2.87376794
2.87371750
2.87408685
2.87425994
2.87422836
2.87411827
2.87387769
2.87398308
2.87432729
2.87435111
2.87419008
2.87391314
2.87357040
2.87349327
2.87333205
2.87295103
2.87280102
2.87280040
2.87295354
2.87339329
2.87357375
2.87348436
2.87351573
2.87345809
2.87354871
2.87390620
2.87391309
2.87368990
2.87351502
2.87322495
2.87331194
2.87380807
2.87396911
2.87390538
2.87382830
2.87363396
2.87372370
2.87399469
2.87397542
2.87387734
2.87377146
2.87373548
2.87401348
2.87421565
2.87415077
2.87407646
2.87384794
2.87367238
2.87383585
2.87384256
2.87366728
2.87371346
2.87385754
2.87414902
2.87452233
2.87458799
2.87445030
2.87428108
2.87420642
2.87454248
2.87490961
2.87485923
2.87461291
2.87420916
2.87378967
2.87372830
2.87369499
2.87350129
2.87335122
2.87309478
2.87295272
2.87310991
2.87308501
2.87288572
2.87271326
2.87242891
2.87235963
2.87253471
2.87247900
2.87242837
2.87261136
2.87287654
2.87341257
2.87395557
2.87413710
2.87425558
2.87434703
2.87446198
2.87493279
2.87534870
2.87535837
2.87520348
2.87485135
2.87464221
2.87478320
2.87465887
2.87430657
2.87407931
2.87370784
2.87341540
2.87348866
2.87353111
2.87354111
2.87347955
2.87321958
2.87324809
2.87353753
2.87362813
2.87375875
2.87392244
2.87396988
2.87420385
2.87437890
2.87423132
2.87411838
2.87408868
2.87423648
2.87461862
2.87459012
2.87415559
2.87375694
2.87316772
2.87261693
2.87248725
2.87229964
2.87198320
2.87190459
2.87199796
2.87230485
2.87275930
2.87299575
2.87303609
2.87294469
2.87287698
2.87312052
2.87328024
2.87310590
2.87292858
2.87272729
2.87264338
2.87301483
2.87346961
2.87378736
2.87403415
2.87410234
2.87431258
2.87467326
2.87459157
2.87423213
2.87388256
2.87341002
2.87325816
2.87341066
2.87324869
2.87297333
2.87287893
2.87292592
2.87329483
2.87365276
2.87361324
2.87348100
2.87336490
2.87343593
2.87391859
2.87432000
2.87441475
2.87439318
2.87417555
2.87404850
2.87414352
2.87395143
2.87351669
2.87313031
2.87267509
2.87253076
2.87275815
2.87277317
2.87261042
2.87247721
2.87238965
2.87260993
2.87291682
2.87298297
2.87301845
2.87297896
2.87298979
2.87336155
2.87362050
2.87346870
2.87324295
2.87291055
2.87275279
2.87305169
2.87326910
2.87328825
2.87344164
2.87365987
2.87408514
2.87458975
2.87460570
2.87438506
2.87422148
2.87394128
2.87377039
2.87366905
2.87322120
2.87267594
2.87221450
2.87185512
2.87186804
2.87197802
2.87185574
2.87177254
2.87188418
2.87228427
2.87285972
2.87302005
2.87266825
2.87223196
2.87190688
2.87192392
2.87219631
2.87223232
2.87198893
2.87167317
2.87141820
2.87154512
2.87187827
2.87216094
2.87254445
2.87286154
2.87311739
2.87364628
2.87410770
2.87414814
2.87405868
2.87388037
2.87371761
2.87372497
2.87361499
2.87338280
2.87319918
2.87307690
2.87328460
2.87383444
2.87424460
2.87442852
2.87439171
2.87430398
2.87468695
2.87519411
2.87511473
2.87472401
2.87431118
2.87392239
2.87380840
2.87372507
2.87342088
2.87309537
2.87284480
2.87287135
2.87327656
2.87369332
2.87396802
2.87397120
2.87361142
2.87341832
2.87350211
2.87349585
2.87356103
2.87358619
2.87340864
2.87351757
2.87365135
2.87338310
2.87328399
2.87338079
2.87339696
2.87375554
2.87424205
2.87429177
2.87409466
2.87378518
2.87362336
2.87379182
2.87382033
2.87370901
2.87375326
2.87365035
2.87369369
2.87422488
2.87459330
2.87465254
2.87470397
2.87458496
2.87449111
2.87457399
2.87456048
2.87445612
2.87420418
2.87389690
2.87393449
2.87396116
2.87355675
2.87311011
2.87271109
2.87241515
2.87257351
2.87282649
2.87281654
2.87272869
2.87262530
2.87275070
2.87321964
2.87350512
2.87360116
2.87376009
2.87383785
2.87402947
2.87436984
2.87445384
2.87439849
2.87438039
2.87437482
2.87455477
2.87460035
2.87420433
2.87370157
2.87324553
2.87299018
2.87319049
2.87342029
2.87338563
2.87327119
2.87304604
2.87305892
2.87356230
2.87390573
2.87382247
2.87358954
2.87326457
2.87311151
2.87319709
2.87322618
2.87324704
2.87324038
2.87311250
2.87318369
2.87338464
2.87343719
2.87349034
2.87353807
2.87364165
2.87393114
2.87394958
2.87361150
2.87339151
2.87328033
2.87331777
2.87370024
2.87406479
2.87415924
2.87403424
2.87382141
2.87391938
2.87422129
2.87417552
2.87381131
2.87329983
2.87278868
2.87259334
2.87252295
2.87230189
2.87199159
2.87149600
2.87119174
2.87148156
2.87174203
2.87174428
2.87186128
2.87186938
2.87185989
2.87220841
2.87244229
2.87235619
2.87213106
2.87173731
2.87151337
2.87153072
2.87129931
2.87094694
2.87059918
2.87021217
2.87022705
2.87050639
2.87049027
2.87035380
2.87013404
2.86994556
2.87018761
2.87049914
2.87048900
2.87044413
2.87035174
2.87032243
2.87061515
2.87087672
2.87103710
2.87125108
2.87130128
2.87142966
2.87182766
2.87209202
2.87227613
2.87252030
2.87270231
2.87295173
2.87312122
2.87289964
2.87258394
2.87223424
2.87187980
2.87187628
2.87193047
2.87174503
2.87153222
2.87131170
2.87128524
2.87155151
2.87163930
2.87166424
2.87180584
2.87167178
2.87165691
2.87209150
2.87231990
2.87239481
2.87265762
2.87286426
2.87325500
2.87389839
2.87423869
2.87432802
2.87433864
2.87424409
2.87428160
2.87435410
2.87425168
2.87409767
2.87384786
2.87376523
2.87408151
2.87417607
2.87387621
2.87354277
2.87310548
2.87291936
2.87320777
2.87324609
2.87293367
2.87267598
2.87238877
2.87231503
2.87260676
2.87279894
2.87292902
2.87307748
2.87307798
2.87322462
2.87357478
2.87378957
2.87393677
2.87403673
2.87415662
2.87445810
2.87458191
2.87434773
2.87401706
2.87370098
2.87374311
2.87423938
2.87454091
2.87452768
2.87442745
2.87418653
2.87411356
2.87426032
2.87417137
2.87397224
2.87380931
2.87353180
2.87338843
2.87340227
2.87331310
2.87321175
2.87314923
2.87325155
2.87360081
2.87380306
2.87370563
2.87348389
2.87309733
2.87288009
2.87301535
2.87299657
2.87272509
2.87235432
2.87195077
2.87191363
2.87211673
2.87209915
2.87214038
2.87217774
2.87199650
2.87204080
2.87213574
2.87187904
2.87164178
2.87143880
2.87120599
2.87141722
2.87176328
2.87190239
2.87208814
2.87211899
2.87212046
2.87255620
2.87292478
2.87284782
2.87258443
2.87220324
2.87200755
2.87217738
2.87228198
2.87228827
2.87230001
2.87214404
2.87213902
2.87238709
2.87243026
2.87224855
2.87204893
2.87191373
2.87190692
2.87187918
2.87189500
2.87201001
2.87192334
2.87188053
2.87222693
2.87250268
2.87266325
2.87297286
2.87313143
2.87316937
2.87331362
2.87332295
2.87327191
2.87327402
2.87315451
2.87317107
2.87334550
2.87335231
2.87330256
2.87329556
2.87337193
2.87372082
2.87387948
2.87352299
2.87306365
2.87255941
2.87210296
2.87206324
2.87212048
2.87197594
2.87183311
2.87166218
2.87155939
2.87167368
2.87171898
2.87160896
2.87134386
2.87098559
2.87104557
2.87147449
2.87158582
2.87145288
2.87143333
2.87160478
2.87193051
2.87214041
2.87215056
2.87218456
2.87217096
2.87230144
2.87273810
2.87303743
2.87308096
2.87304234
2.87287707
2.87297595
2.87337300
2.87353007
2.87362051
2.87380293
2.87365888
2.87347795
2.87357844
2.87359498
2.87349817
2.87339032
2.87335423
2.87361944
2.87384889
2.87374737
2.87358538
2.87325566
2.87290263
2.87297241
2.87303250
2.87268442
2.87235378
2.87215830
2.87223214
2.87273046
2.87324054
2.87350747
2.87358171
2.87346807
2.87346529
2.87354036
2.87344931
2.87343674
2.87349486
2.87342190
2.87355247
2.87374504
2.87370959
2.87371506
2.87371226
2.87358867
2.87363675
2.87372904
2.87368221
2.87359988
2.87342674
2.87342179
2.87377027
2.87399163
2.87396315
2.87383111
2.87348817
2.87322071
2.87309792
2.87267984
2.87203838
2.87137307
2.87082777
2.87075449
2.87085535
2.87068208
2.87052330
2.87039177
2.87020540
2.87040317
2.87076505
2.87093204
2.87103372
2.87106780
2.87121230
2.87155776
2.87167424
2.87157763
2.87154688
2.87150192
2.87162421
2.87195677
2.87205813
2.87204801
2.87205452
2.87197496
2.87210424
2.87233708
2.87222567
2.87194379
2.87172520
2.87164377
2.87184825
2.87200052
2.87184914
2.87163941
2.87154184
2.87176637
2.87231701
2.87270281
2.87281233
2.87266141
2.87232214
2.87247575
2.87311597
2.87341648
2.87346428
2.87346803
2.87327732
2.87327085
2.87342275
2.87329107
2.87310048
2.87290720
2.87260498
2.87254549
2.87257804
2.87248186
2.87250824
2.87251160
2.87254939
2.87289981
2.87306119
2.87287450
2.87279364
2.87281577
2.87305949
2.87367036
2.87418845
2.87443975
2.87447933
2.87431466
2.87440620
2.87468078
2.87456113
2.87432076
2.87417178
2.87397278
2.87407931
2.87431271
2.87408479
2.87367692
2.87341741
2.87326626
2.87342025
2.87372182
2.87381022
2.87365013
2.87337218
2.87327383
2.87331935
2.87313004
2.87283961
2.87258066
2.87233030
2.87251861
2.87310918
2.87353226
2.87377098
2.87385795
2.87381812
2.87401764
2.87423435
2.87411707
2.87390464
2.87364176
2.87347548
2.87368699
2.87381695
2.87362075
2.87341839
2.87311811
2.87282892
2.87288113
2.87292738
2.87283817
2.87278976
2.87269981
2.87276768
2.87304242
2.87311374
2.87298615
2.87277097
2.87250120
2.87256895
2.87283829
2.87289770
2.87286208
2.87285282
2.87290762
2.87309716
2.87313880
2.87301184
2.87293484
2.87274889
2.87255232
2.87252550
2.87236208
2.87205543
2.87174482
2.87139131
2.87138798
2.87171153
2.87170933
2.87158947
2.87162155
2.87158091
2.87166976
2.87193409
2.87205437
2.87211854
2.87222914
2.87243551
2.87283960
2.87308163
2.87290155
2.87259224
2.87225158
2.87199919
2.87204452
2.87213042
2.87197533
2.87168646
2.87153555
2.87173263
2.87198406
2.87202437
2.87197662
2.87185302
2.87183564
2.87223786
2.87254942
2.87245095
2.87238001
2.87227535
2.87214523
2.87235741
2.87248494
2.87219501
2.87190545
2.87171439
2.87173787
2.87209262
2.87236589
2.87244317
2.87249786
2.87241997
2.87258565
2.87313848
2.87349498
2.87354016
2.87350563
2.87341879
2.87349520
2.87369999
2.87378448
2.87376936
2.87349883
2.87310720
2.87298736
2.87281062
2.87244051
2.87233023
2.87235203
2.87238817
2.87264799
2.87273517
2.87237434
2.87186409
2.87149647
2.87161410
2.87219094
2.87270513
2.87299537
2.87306764
2.87302309
2.87324846
2.87358852
2.87366135
2.87359903
2.87344166
2.87329293
2.87340218
2.87336329
2.87300002
2.87262016
2.87218646
2.87191590
2.87209334
2.87227272
2.87243286
2.87267486
2.87268242
2.87283031
2.87336607
2.87368693
2.87384040
2.87409412
2.87422055
2.87447712
2.87484527
2.87485986
2.87471135
2.87451011
2.87424084
2.87432020
2.87452655
2.87436412
2.87406290
2.87370872
2.87338955
2.87337876
2.87333497
2.87308252
2.87288952
2.87275497
2.87279139
2.87306940
2.87313203
2.87310868
2.87320099
2.87316073
2.87322827
2.87343260
2.87327768
2.87291722
2.87264844
2.87247286
2.87260627
2.87283825
2.87283296
2.87280036
2.87273828
2.87267560
2.87300969
2.87349703
2.87385322
2.87418327
2.87429681
2.87437393
2.87473065
2.87491572
2.87469828
2.87432026
2.87388259
2.87369738
2.87379586
2.87375186
2.87366298
2.87367939
2.87366126
2.87383785
2.87423195
2.87455081
2.87479275
2.87487574
2.87491952
2.87519033
2.87539009
2.87531311
2.87513473
2.87480730
2.87471885
2.87513145
2.87538010
2.87522184
2.87500197
2.87476707
2.87476045
2.87502440
2.87506760
2.87492711
2.87479472
2.87457935
2.87454817
2.87471914
2.87474709
2.87464600
2.87449305
2.87439952
2.87452543
2.87449651
2.87422777
2.87405588
2.87391585
2.87394046
2.87432788
2.87450304
2.87432918
2.87426000
2.87426239
2.87439422
2.87472622
2.87488816
2.87482807
2.87463090
2.87434400
2.87427544
2.87426343
2.87389632
2.87337623
2.87280229
2.87225829
2.87224165
2.87258261
2.87279993
2.87296849
2.87299735
2.87278229
2.87262756
2.87259116
2.87260752
2.87265714
2.87261441
2.87268923
2.87293544
2.87293392
2.87278818
2.87275350
2.87275783
2.87298863
2.87337500
2.87352126
2.87348699
2.87338066
2.87332459
2.87355388
2.87379285
2.87389573
2.87406370
2.87415074
2.87425818
2.87458689
2.87461490
2.87426349
2.87386788
2.87333885
2.87299420
2.87305910
2.87307073
2.87307727
2.87317471
2.87308387
2.87309351
2.87330494
2.87327457
2.87320480
2.87324078
2.87321455
2.87340280
2.87366833
2.87356566
2.87331053
2.87308247
2.87291298
2.87288589
2.87266574
2.87221097
2.87177546
2.87122214
2.87084431
2.87099122
2.87113777
2.87105238
2.87100801
2.87102542
2.87133735
2.87186061
2.87199524
2.87183759
2.87163115
2.87133103
2.87128506
2.87147806
2.87138061
2.87105516
2.87078135
2.87077078
2.87120895
2.87177470
2.87211501
2.87232702
2.87244654
2.87263816
2.87299887
2.87317538
2.87306292
2.87286587
2.87272696
2.87294701
2.87337386
2.87339688
2.87305635
2.87262143
2.87216458
2.87198642
2.87203755
2.87205540
2.87206253
2.87197007
2.87185030
2.87202529
2.87220613
2.87217502
2.87217964
2.87213520
2.87203242
2.87214137
2.87230250
2.87237361
2.87241185
2.87243091
2.87260201
2.87290193
2.87306951
2.87309041
2.87291772
2.87267944
2.87286113
2.87334533
2.87370456
2.87394059
2.87406045
2.87422273
2.87462612
2.87492512
2.87500735
2.87500950
2.87480061
2.87463086
2.87467173
2.87451799
2.87416873
2.87378314
2.87328145
2.87305207
2.87316296
2.87315751
2.87314959
2.87315611
2.87301925
2.87313932
2.87352480
2.87378325
2.87404691
2.87427941
2.87449044
2.87499100
2.87546613
2.87567693
2.87585998
2.87578673
2.87552204
2.87552344
2.87553412
2.87531851
2.87492628
2.87433784
2.87400163
2.87404312
2.87383377
2.87343798
2.87318359
2.87287889
2.87280695
2.87306544
2.87314270
2.87308567
2.87310014
2.87317376
2.87350331
2.87393939
2.87411534
2.87412952
2.87411866
2.87426679
2.87463909
2.87478447
2.87452002
2.87408941
2.87363562
2.87350127
2.87368496
2.87364426
2.87336646
2.87303534
2.87270973
2.87275397
2.87309727
2.87328954
2.87336480
2.87330425
2.87311837
2.87317066
2.87334684
2.87342234
2.87350400
2.87346131
2.87343001
2.87375909
2.87404449
2.87406647
2.87414493
2.87427020
2.87452663
2.87494470
2.87509634
2.87490910
2.87453429
2.87403763
2.87390278
2.87410709
2.87416952
2.87417466
2.87420469
2.87421361
2.87450678
2.87488214
2.87487709
2.87469023
2.87442033
2.87416382
2.87425911
2.87442042
2.87436578
2.87422550
2.87398452
2.87389139
2.87416814
2.87443898
2.87451076
2.87443103
2.87423293
2.87427888
2.87450613
2.87451431
2.87446811
2.87449653
2.87454037
2.87485005
2.87518250
2.87514751
2.87489152
2.87457515
2.87445364
2.87477578
2.87499907
2.87481000
2.87453488
2.87426015
2.87417750
2.87445084
2.87465090
2.87465853
2.87452127
2.87419564
2.87409297
2.87426010
2.87428251
2.87422681
2.87406181
2.87366924
2.87354985
2.87365374
2.87349505
2.87339701
2.87352447
2.87365728
2.87391539
2.87407746
2.87381820
2.87344544
2.87324779
2.87337594
2.87373818
2.87394328
2.87388045
2.87371583
2.87363716
2.87402707
2.87472685
2.87512424
2.87519539
2.87497860
2.87460151
2.87465083
2.87495479
2.87495496
2.87491964
2.87488312
2.87464437
2.87454927
2.87464391
2.87456052
2.87442676
2.87440685
2.87447356
2.87455622
2.87448689
2.87426535
2.87386079
2.87334015
2.87317941
2.87333486
2.87339986
2.87348845
2.87359556
2.87364625
2.87391332
2.87419070
2.87415808
2.87403890
2.87380399
2.87354855
2.87366930
2.87382055
2.87366679
2.87344068
2.87305241
2.87260218
2.87250428
2.87251178
2.87244449
2.87242065
2.87228267
2.87227570
2.87265178
2.87295644
2.87299885
2.87300418
2.87309137
2.87340025
2.87377696
2.87388973
2.87380336
2.87364175
2.87366540
2.87408595
2.87441302
2.87428611
2.87392962
2.87343917
2.87315419
2.87327614
2.87324670
2.87290890
2.87257147
2.87224360
2.87213216
2.87239081
2.87266172
2.87280525
2.87277286
2.87260911
2.87282038
2.87342306
2.87388879
2.87415752
2.87425995
2.87428051
2.87448288
2.87461718
2.87454011
2.87457659
2.87470439
2.87494728
2.87529518
2.87534614
2.87515084
2.87493746
2.87462856
2.87459998
2.87485804
2.87484701
2.87478259
2.87478556
2.87454228
2.87458106
2.87514053
2.87552067
2.87564854
2.87574988
2.87581926
2.87607997
2.87639754
2.87642719
2.87620246
2.87572973
2.87543237
2.87569753
2.87593003
2.87578777
2.87571496
2.87580413
2.87606630
2.87642836
2.87662696
2.87678085
2.87685279
2.87675014
2.87699082
2.87733360
2.87706506
2.87663683
2.87637476
2.87610284
2.87618920
2.87642773
2.87624686
2.87597181
2.87584042
2.87580586
2.87614587
2.87666572
2.87693399
2.87692523
2.87671021
2.87660857
2.87679834
2.87692208
2.87693135
2.87679516
2.87634296
2.87605000
2.87608682
2.87592881
2.87569914
2.87555880
2.87533650
2.87537775
2.87571534
2.87588085
2.87593446
2.87603728
2.87620299
2.87647970
2.87669657
2.87680868
2.87680895
2.87654486
2.87633376
2.87642771
2.87640176
2.87623114
2.87612887
2.87598681
2.87608365
2.87638731
2.87633950
2.87593511
2.87533955
2.87474983
2.87468299
2.87486517
2.87474649
2.87463869
2.87457234
2.87445819
2.87462363
2.87484917
2.87491301
2.87506786
2.87518518
2.87536958
2.87589354
2.87622008
2.87614327
2.87593608
2.87552924
2.87526327
2.87531423
2.87519811
2.87491421
2.87461644
2.87420940
2.87406051
2.87414554
2.87395650
2.87364151
2.87334288
2.87308041
2.87329068
2.87375004
2.87386903
2.87369548
2.87331011
2.87297157
2.87312285
2.87342421
2.87353733
2.87353450
2.87332024
2.87316017
2.87333143
2.87345503
2.87352864
2.87365530
2.87362023
2.87364362
2.87378223
2.87372344
2.87361014
2.87347387
2.87330152
2.87347257
2.87371278
2.87354378
2.87328115
2.87310762
2.87302905
2.87318280
2.87327599
2.87315156
2.87296343
2.87272139
2.87274874
2.87311190
2.87322328
2.87300139
2.87259430
2.87202224
2.87184664
2.87215976
2.87243414
2.87269495
2.87279637
2.87261393
2.87272954
2.87307826
2.87312814
2.87304208
2.87295733
2.87288962
2.87291391
2.87265439
2.87220576
2.87198710
2.87178676
2.87179711
2.87238321
2.87291563
2.87310440
2.87327525
2.87338448
2.87359089
2.87392600
2.87382844
2.87339423
2.87293518
2.87248923
2.87245457
2.87281022
2.87295505
2.87297618
2.87309426
2.87320327
2.87348085
2.87388689
2.87406380
2.87395442
2.87371051
2.87360095
2.87358133
2.87335782
2.87306425
2.87283707
2.87254202
2.87247718
2.87267813
2.87269066
2.87256716
2.87252753
2.87262953
2.87299430
2.87329448
2.87312707
2.87269328
2.87222326
2.87200644
2.87228940
2.87266482
2.87296107
2.87326069
2.87327359
2.87329430
2.87370026
2.87398142
2.87399939
2.87398570
2.87383087
2.87382995
2.87412414
2.87415314
2.87394267
2.87380244
2.87379447
2.87411422
2.87451716
2.87456886
2.87450712
2.87440894
2.87428422
2.87452957
2.87486406
2.87483957
2.87473201
2.87470241
2.87480009
2.87516374
2.87538351
2.87513837
2.87464826
2.87408535
2.87377078
2.87388698
2.87417494
2.87437942
2.87433674
2.87417548
2.87437517
2.87481109
2.87502651
2.87508665
2.87503412
2.87500380
2.87520593
2.87512844
2.87460464
2.87416108
2.87385444
2.87378977
2.87414391
2.87444991
2.87454234
2.87467122
2.87475674
2.87491483
2.87526972
2.87551845
2.87563977
2.87560692
2.87535464
2.87526485
2.87518909
2.87474662
2.87427448
2.87379462
2.87328377
2.87327170
2.87353191
2.87349463
2.87333141
2.87317205
2.87312016
2.87331852
2.87343219
2.87339514
2.87342998
2.87338022
2.87349973
2.87391083
2.87403704
2.87388127
2.87377976
2.87361701
2.87357532
2.87366283
2.87359941
2.87349619
2.87337363
2.87329341
2.87369135
2.87421248
2.87432071
2.87426601
2.87410072
2.87400075
2.87435605
2.87475951
2.87487936
2.87488343
2.87464074
2.87446351
2.87473406
2.87494763
2.87490417
2.87482230
2.87455628
2.87434565
2.87444281
2.87451582
2.87447556
2.87437451
2.87428976
2.87452747
2.87476178
2.87459228
2.87429457
2.87393428
2.87356831
2.87354287
2.87359269
2.87339702
2.87317380
2.87289088
2.87264556
2.87270506
2.87276689
2.87259836
2.87237932
2.87220572
2.87233338
2.87270005
2.87286528
2.87284140
2.87278583
2.87278345
2.87301967
2.87322945
2.87312108
2.87297585
2.87281738
2.87262229
2.87264298
2.87267702
2.87258905
2.87255411
2.87248061
2.87252868
2.87291517
2.87319640
2.87328274
2.87345930
2.87370470
2.87416639
2.87477030
2.87509066
2.87509681
2.87489576
2.87469722
2.87491611
2.87522960
2.87527158
2.87528427
2.87519089
2.87514814
2.87560759
2.87606458
2.87612401
2.87614944
2.87608404
2.87600334
2.87623649
2.87639866
2.87624011
2.87594104
2.87554520
2.87530843
2.87524881
2.87504642
2.87481901
2.87452683
2.87413519
2.87409374
2.87413523
2.87385419
2.87364105
2.87350112
2.87343071
2.87376242
2.87401954
2.87387074
2.87376496
2.87365228
2.87364408
2.87407218
2.87444436
2.87458831
2.87478653
2.87485358
2.87494003
2.87522806
2.87523382
2.87512384
2.87521322
2.87525059
2.87542709
2.87569042
2.87556204
2.87538324
2.87537463
2.87534662
2.87560542
2.87598671
2.87592602
2.87560873
2.87522167
2.87490844
2.87503858
2.87528186
2.87522028
2.87497676
2.87458206
2.87436678
2.87460270
2.87477758
2.87475563
2.87474521
2.87464382
2.87473607
2.87510598
2.87519928
2.87503105
2.87487519
2.87471993
2.87472064
2.87485395
2.87496200
2.87508575
2.87508962
2.87513482
2.87551578
2.87578283
2.87566899
2.87552261
2.87542355
2.87554250
2.87593309
2.87615937
2.87616725
2.87606545
2.87581154
2.87590184
2.87643711
2.87681627
2.87689791
2.87673710
2.87644094
2.87640631
2.87650200
2.87645713
2.87645529
2.87633837
2.87609856
2.87615842
2.87619733
2.87588791
2.87549149
2.87503199
2.87475591
2.87491274
2.87498748
2.87481486
2.87460696
2.87434377
2.87431755
2.87453627
2.87446059
2.87423830
2.87405003
2.87380719
2.87388566
2.87422591
2.87426855
2.87412783
2.87391556
2.87360966
2.87360114
2.87374015
2.87362522
2.87352769
2.87359485
2.87379741
2.87410547
2.87421118
2.87414356
2.87406119
2.87387650
2.87390757
2.87421524
2.87420183
2.87394384
2.87381477
2.87382596
2.87422356
2.87490278
2.87534409
2.87548649
2.87534431
2.87509529
2.87516826
2.87526011
2.87497972
2.87463291
2.87432311
2.87407526
2.87404805
2.87400024
2.87384680
2.87374649
2.87366378
2.87377893
2.87401001
2.87397716
2.87379649
2.87353641
2.87320338
2.87331153
2.87367651
2.87371145
2.87369950
2.87379769
2.87379610
2.87396865
2.87423763
2.87417098
2.87389101
2.87358185
2.87338689
2.87343608
2.87350955
2.87353347
2.87354603
2.87338045
2.87333382
2.87351112
2.87348341
2.87332706
2.87332925
2.87344892
2.87385170
2.87439625
2.87463450
2.87461909
2.87438093
2.87405426
2.87412743
2.87436736
2.87436986
2.87435141
2.87431975
2.87441892
2.87497927
2.87548689
2.87551392
2.87521586
2.87467044
2.87430696
2.87434563
2.87423083
2.87396208
2.87390094
2.87395973
2.87427579
2.87474792
2.87494315
2.87502026
2.87503153
2.87487438
2.87492946
2.87515719
2.87525775
2.87531353
2.87513483
2.87478907
2.87478730
2.87489117
2.87478217
2.87467490
2.87453571
2.87449704
2.87472701
2.87490547
2.87502713
2.87516828
2.87521582
2.87545951
2.87585221
2.87602650
2.87618544
2.87624961
2.87603614
2.87597255
2.87594736
2.87560033
2.87520749
2.87477785
2.87435922
2.87437879
2.87444595
2.87425372
2.87413138
2.87399660
2.87393845
2.87430981
2.87469665
2.87477424
2.87466611
2.87439530
2.87427484
2.87439454
2.87433231
2.87410144
2.87382934
2.87348723
2.87338102
2.87350820
2.87358561
2.87368996
2.87373364
2.87367985
2.87385294
2.87398429
2.87381482
2.87360336
2.87326728
2.87289621
2.87279619
2.87273014
2.87262047
2.87260495
2.87271653
2.87321453
2.87380643
2.87377846
2.87339238
2.87310532
2.87289269
2.87300970
2.87333556
2.87333657
2.87307394
2.87269706
2.87233487
2.87230289
2.87236584
2.87231200
2.87231804
2.87225627
2.87227152
2.87261737
2.87282541
2.87278860
2.87282579
2.87290694
2.87329130
2.87396678
2.87428251
2.87427691
2.87415449
2.87379450
2.87362689
2.87376079
2.87367567
2.87343211
2.87320949
2.87294808
2.87280736
2.87276085
2.87266263
2.87262905
2.87270431
2.87311040
2.87392637
2.87450919
2.87474379
2.87487283
2.87466635
2.87437114
2.87437078
2.87428416
2.87403249
2.87385748
2.87377074
2.87395174
2.87429543
2.87432582
2.87408052
2.87370906
2.87336697
2.87335898
2.87349648
2.87350921
2.87358328
2.87366232
2.87379039
2.87413565
2.87440601
2.87450252
2.87448219
2.87415844
2.87387194
2.87380689
2.87352076
2.87314536
2.87294665
2.87285815
2.87311776
2.87352052
2.87355723
2.87341279
2.87319389
2.87299476
2.87335385
2.87402856
2.87449953
2.87480930
2.87485738
2.87487709
2.87522898
2.87534858
2.87508637
2.87487012
2.87446283
2.87406818
2.87409595
2.87405015
2.87389228
2.87408139
2.87435144
2.87475901
2.87537306
2.87562378
2.87551878
2.87541831
2.87529195
2.87527794
2.87530496
2.87511446
2.87495011
2.87486197
2.87479926
2.87501058
2.87515285
2.87486638
2.87441806
2.87393623
2.87372661
2.87401863
2.87426031
2.87430426
2.87445505
2.87453290
2.87463247
2.87494686
2.87507432
2.87492133
2.87468122
2.87433510
2.87416773
2.87425707
2.87417404
2.87397213
2.87392972
2.87413583
2.87463438
2.87516471
2.87551544
2.87567500
2.87558444
2.87556915
2.87590238
2.87620074
2.87632193
2.87638940
2.87635040
2.87638641
2.87652615
2.87641196
2.87609158
2.87564430
2.87514211
2.87487770
2.87463497
2.87414853
2.87374414
2.87345089
2.87319222
2.87316496
2.87316678
2.87317171
2.87333071
2.87336298
2.87343799
2.87370977
2.87357511
2.87313989
2.87290807
2.87272556
2.87281006
2.87335219
2.87378292
2.87397093
2.87404446
2.87407035
2.87444344
2.87502535
2.87533635
2.87544496
2.87526574
2.87498463
2.87517905
2.87536149
2.87512336
2.87498213
2.87480995
2.87445061
2.87440451
2.87442432
2.87419401
2.87392234
2.87359228
2.87344233
2.87364809
2.87375344
2.87373005
2.87379052
2.87380276
2.87396157
2.87430725
2.87445431
2.87437224
2.87401970
2.87360585
2.87373371
2.87408227
2.87409752
2.87405929
2.87401050
2.87394296
2.87423191
2.87458351
2.87456591
2.87432368
2.87387635
2.87343311
2.87330070
2.87321095
2.87294478
2.87250645
2.87201540
2.87185598
2.87204825
2.87229627
2.87252787
2.87258224
2.87255124
2.87278053
2.87295953
2.87288010
2.87278284
2.87249941
2.87223025
2.87233879
2.87235397
2.87208760
2.87184911
2.87150716
2.87128297
2.87133390
2.87111096
2.87071948
2.87056273
2.87049636
2.87075465
2.87135668
2.87169624
2.87167583
2.87137821
2.87094667
2.87087837
2.87100561
2.87096755
2.87103350
2.87108551
2.87107110
2.87140787
2.87180312
2.87196546
2.87213383
2.87212052
2.87201302
2.87209603
2.87201481
2.87179093
2.87177992
2.87184190
2.87204212
2.87236652
2.87232889
2.87210232
2.87197806
2.87179892
2.87183776
2.87212282
2.87221394
2.87214996
2.87210195
2.87213260
2.87235347
2.87251400
2.87250421
2.87245389
2.87220371
2.87201619
2.87216478
2.87219796
2.87209270
2.87210167
2.87197460
2.87195174
2.87232219
2.87252896
2.87246726
2.87245241
2.87248494
2.87265243
2.87294496
2.87301985
2.87279554
2.87239853
2.87218305
2.87232384
2.87243990
2.87249884
2.87260279
2.87242403
2.87228477
2.87262529
2.87289739
2.87294003
2.87302877
2.87301577
2.87301984
2.87314394
2.87302051
2.87282035
2.87268602
2.87254260
2.87275053
2.87321033
2.87348663
2.87376210
2.87403143
2.87419084
2.87447703
2.87465764
2.87460279
2.87455227
2.87437037
2.87423296
2.87444020
2.87447516
2.87420155
2.87392085
2.87358407
2.87357774
2.87400494
2.87413428
2.87393575
2.87367723
2.87328657
2.87323601
2.87364466
2.87386867
2.87383756
2.87371669
2.87359933
2.87381975
2.87420282
2.87455475
2.87496928
2.87501906
2.87474292
2.87474995
2.87475242
2.87450547
2.87443980
2.87442553
2.87431177
2.87423715
2.87397892
2.87368693
2.87359203
2.87349764
2.87359942
2.87391255
2.87394608
2.87373857
2.87358383
2.87356236
2.87387371
2.87430310
2.87441609
2.87428080
2.87401604
2.87377645
2.87386017
2.87409231
2.87429345
2.87444235
2.87440098
2.87440102
2.87453274
2.87444947
2.87424799
2.87407008
2.87385867
2.87390822
2.87404426
2.87379773
2.87339746
2.87295878
2.87259258
2.87272925
2.87301823
2.87304321
2.87306610
2.87296167
2.87280020
2.87305057
2.87330931
2.87319209
2.87288896
2.87239354
2.87207596
2.87220836
2.87231264
2.87237314
2.87248105
2.87231965
2.87225632
2.87248118
2.87243712
2.87221354
2.87195281
2.87161805
2.87162410
2.87186042
2.87192165
2.87205688
2.87216609
2.87221145
2.87264868
2.87307007
2.87306804
2.87309954
2.87316299
2.87327758
2.87380541
2.87430880
2.87435532
2.87409948
2.87364183
2.87339857
2.87354127
2.87362319
2.87359454
2.87347225
2.87328207
2.87346913
2.87378957
2.87373682
2.87362686
2.87352455
2.87332959
2.87344616
2.87362998
2.87352268
2.87346975
2.87359593
2.87380727
2.87406480
2.87411435
2.87403234
2.87394509
2.87372638
2.87371043
2.87377071
2.87336122
2.87283524
2.87246322
2.87205618
2.87209441
2.87259348
2.87288640
2.87304317
2.87320858
2.87331192
2.87365156
2.87398237
2.87391216
2.87368053
2.87337313
2.87325905
2.87363634
2.87399911
2.87403850
2.87387247
2.87347347
2.87321629
2.87329553
2.87326661
2.87321148
2.87323343
2.87309261
2.87314130
2.87332944
2.87305490
2.87269049
2.87264738
2.87274773
2.87308434
2.87352756
2.87364851
2.87350763
2.87331580
2.87334533
2.87374339
2.87407975
2.87417028
2.87408145
2.87375654
2.87371352
2.87409835
2.87425241
2.87415018
2.87390945
2.87344345
2.87332334
2.87360883
2.87373122
2.87392439
2.87418605
2.87426848
2.87459758
2.87496752
2.87491924
2.87483678
2.87471587
2.87451688
2.87464473
2.87471844
2.87441744
2.87408297
2.87372984
2.87361820
2.87402012
2.87429733
2.87423367
2.87411349
2.87388579
2.87383901
2.87407243
2.87407285
2.87399808
2.87412190
2.87421057
2.87447383
2.87487774
2.87493060
2.87471553
2.87448289
2.87434379
2.87451861
2.87474581
2.87469058
2.87451153
2.87430192
2.87422243
2.87435931
2.87440124
2.87437983
2.87445009
2.87453807
2.87488339
2.87544329
2.87564696
2.87550861
2.87530933
2.87518823
2.87539352
2.87573752
2.87585164
2.87582972
2.87563346
2.87531685
2.87521593
2.87519310
2.87509839
2.87512889
2.87525002
2.87547064
2.87573004
2.87568957
2.87540704
2.87501639
2.87452552
2.87430370
2.87434622
2.87428672
2.87423312
2.87413178
2.87395109
2.87410345
2.87436820
2.87433350
2.87437351
2.87456279
2.87475522
2.87510828
2.87535013
2.87522528
2.87498746
2.87477048
2.87480996
2.87514872
2.87531657
2.87529800
2.87521751
2.87488078
2.87466357
2.87490130
2.87521624
2.87545301
2.87551910
2.87544090
2.87563784
2.87602737
2.87624615
2.87631223
2.87612867
2.87579990
2.87563571
2.87546338
2.87523234
2.87506257
2.87482515
2.87467474
2.87467243
2.87449576
2.87432250
2.87418308
2.87399402
2.87418628
2.87458327
2.87470355
2.87478253
2.87468746
2.87437108
2.87434843
2.87424149
2.87375193
2.87343491
2.87327755
2.87333702
2.87386043
2.87423393
2.87429153
2.87435575
2.87418233
2.87404485
2.87427160
2.87439131
2.87444975
2.87436639
2.87385537
2.87365885
2.87393243
2.87397580
2.87396156
2.87390427
2.87366119
2.87378808
2.87413798
2.87424970
2.87435295
2.87424942
2.87403202
2.87417855
2.87414238
2.87379701
2.87355379
2.87320219
2.87310965
2.87345529
2.87340653
2.87320499
2.87319499
2.87294866
2.87296692
2.87342852
2.87353552
2.87335398
2.87301936
2.87246512
2.87219480
2.87201083
2.87167299
2.87153194
2.87115887
2.87067531
2.87080706
2.87097455
2.87097535
2.87119129
2.87113658
2.87113199
2.87155127
2.87171805
2.87184850
2.87201347
2.87173342
2.87180326
2.87214577
2.87198117
2.87193903
2.87169919
2.87105269
2.87116308
2.87126040
2.87099769
2.87151509
2.87164898
2.87156976
2.87253435
2.87278326
2.87283491
2.87376778
2.87300987
2.87289028
2.87456003
2.87298490
2.87326855
2.87697665
2.86918986
