-0.19115694
-0.19116554
-0.19133300
-0.19122785
-0.19132134
-0.19149684
-0.19145473
-0.19145577
-0.19147898
-0.19146517
-0.19171089
-0.19191560
-0.19156532
-0.19094654
-0.19041966
-0.19002723
-0.18996989
-0.19030004
-0.19058163
-0.19060848
-0.19064903
-0.19097416
-0.19151471
-0.19203951
-0.19235732
-0.19242809
-0.19239534
-0.19245240
-0.19254732
-0.19255100
-0.19255665
-0.19254357
-0.19242004
-0.19229081
-0.19214980
-0.19188621
-0.19164348
-0.19147388
-0.19133737
-0.19135641
-0.19142337
-0.19126074
-0.19103885
-0.19096482
-0.19100264
-0.19125834
-0.19169482
-0.19194876
-0.19199823
-0.19206928
-0.19217911
-0.19237033
-0.19262013
-0.19271703
-0.19265965
-0.19259426
-0.19249549
-0.19227656
-0.19195334
-0.19154069
-0.19111486
-0.19082731
-0.19081572
-0.19088719
-0.19069753
-0.19032481
-0.19016572
-0.19028790
-0.19043436
-0.19045858
-0.19033695
-0.19012437
-0.19000329
-0.19016593
-0.19056518
-0.19089582
-0.19095952
-0.19085680
-0.19071658
-0.19061673
-0.19066093
-0.19075321
-0.19064400
-0.19046371
-0.19052300
-0.19073545
-0.19083064
-0.19075349
-0.19058340
-0.19033480
-0.19013245
-0.19010324
-0.19010619
-0.18988528
-0.18945778
-0.18905349
-0.18877600
-0.18868886
-0.18874762
-0.18875040
-0.18870697
-0.18893763
-0.18952307
-0.19014407
-0.19057021
-0.19084753
-0.19115552
-0.19159467
-0.19210886
-0.19245136
-0.19250670
-0.19229813
-0.19187373
-0.19145674
-0.19125557
-0.19113460
-0.19088108
-0.19054711
-0.19028641
-0.19023944
-0.19047124
-0.19089287
-0.19127191
-0.19146961
-0.19149209
-0.19139371
-0.19119371
-0.19090939
-0.19049754
-0.19002754
-0.18980823
-0.18985669
-0.18971200
-0.18927912
-0.18886117
-0.18849976
-0.18835506
-0.18874200
-0.18928915
-0.18946913
-0.18943964
-0.18950850
-0.18971567
-0.19001773
-0.19027371
-0.19034809
-0.19026129
-0.19009811
-0.19009412
-0.19038084
-0.19076989
-0.19115150
-0.19149275
-0.19170461
-0.19181530
-0.19178068
-0.19149209
-0.19120468
-0.19116117
-0.19121304
-0.19127569
-0.19127617
-0.19090169
-0.19022050
-0.18974096
-0.18968761
-0.18993433
-0.19021418
-0.19028270
-0.19011878
-0.18997304
-0.19007080
-0.19032748
-0.19046496
-0.19050069
-0.19061254
-0.19078034
-0.19093506
-0.19101179
-0.19086699
-0.19055540
-0.19028419
-0.19014640
-0.19021571
-0.19029688
-0.19007788
-0.18975432
-0.18972435
-0.19003223
-0.19055807
-0.19099032
-0.19086460
-0.19033761
-0.18996808
-0.18998009
-0.19028748
-0.19064275
-0.19073735
-0.19055984
-0.19029557
-0.19002494
-0.18983237
-0.18980736
-0.18981288
-0.18971682
-0.18960761
-0.18964522
-0.18970513
-0.18963526
-0.18957732
-0.18968847
-0.18997041
-0.19041390
-0.19079900
-0.19079564
-0.19051918
-0.19040415
-0.19066870
-0.19117345
-0.19148734
-0.19139742
-0.19116707
-0.19103143
-0.19091265
-0.19083411
-0.19082426
-0.19076670
-0.19073642
-0.19085815
-0.19106248
-0.19124464
-0.19126514
-0.19105814
-0.19088198
-0.19100083
-0.19130303
-0.19154090
-0.19153958
-0.19135905
-0.19124984
-0.19139662
-0.19170072
-0.19188219
-0.19175338
-0.19139038
-0.19103150
-0.19081753
-0.19083668
-0.19104108
-0.19115618
-0.19115771
-0.19133917
-0.19160653
-0.19162471
-0.19142746
-0.19116672
-0.19083380
-0.19062218
-0.19071463
-0.19092788
-0.19100892
-0.19094311
-0.19077756
-0.19066038
-0.19064907
-0.19049813
-0.19011493
-0.18969358
-0.18942070
-0.18948820
-0.18985166
-0.19016943
-0.19024908
-0.19014612
-0.19003042
-0.19017730
-0.19057473
-0.19083567
-0.19083758
-0.19081680
-0.19092750
-0.19121175
-0.19147221
-0.19142885
-0.19122740
-0.19123819
-0.19154374
-0.19201603
-0.19233938
-0.19222893
-0.19189138
-0.19168969
-0.19168702
-0.19178807
-0.19172095
-0.19138670
-0.19106459
-0.19099903
-0.19104298
-0.19108721
-0.19107167
-0.19086516
-0.19061757
-0.19063630
-0.19086575
-0.19101617
-0.19093475
-0.19063810
-0.19034517
-0.19033813
-0.19057750
-0.19079033
-0.19080268
-0.19061500
-0.19044276
-0.19057361
-0.19090831
-0.19109526
-0.19115323
-0.19119500
-0.19116287
-0.19124141
-0.19155748
-0.19178214
-0.19180757
-0.19188778
-0.19202331
-0.19213751
-0.19220606
-0.19211812
-0.19201603
-0.19217286
-0.19238774
-0.19252127
-0.19269302
-0.19265052
-0.19227267
-0.19202890
-0.19207466
-0.19211150
-0.19209443
-0.19206605
-0.19188261
-0.19166305
-0.19162222
-0.19170058
-0.19178721
-0.19188934
-0.19204836
-0.19234767
-0.19275099
-0.19300978
-0.19301908
-0.19290141
-0.19277534
-0.19273527
-0.19281784
-0.19280806
-0.19254871
-0.19218334
-0.19201155
-0.19217703
-0.19259100
-0.19293530
-0.19296933
-0.19280136
-0.19265177
-0.19259394
-0.19259210
-0.19260598
-0.19249702
-0.19221363
-0.19198324
-0.19192288
-0.19183872
-0.19164282
-0.19141341
-0.19114855
-0.19098966
-0.19106779
-0.19114986
-0.19097690
-0.19072164
-0.19066790
-0.19090044
-0.19127420
-0.19150021
-0.19133133
-0.19084975
-0.19046926
-0.19052071
-0.19086127
-0.19114907
-0.19128863
-0.19133567
-0.19141483
-0.19166048
-0.19194099
-0.19205741
-0.19203167
-0.19200222
-0.19214033
-0.19248876
-0.19277298
-0.19284226
-0.19285909
-0.19286491
-0.19288729
-0.19301957
-0.19304270
-0.19277423
-0.19239055
-0.19212388
-0.19210373
-0.19229092
-0.19246874
-0.19253819
-0.19255679
-0.19260373
-0.19278814
-0.19297339
-0.19297339
-0.19291216
-0.19286703
-0.19272459
-0.19260206
-0.19249098
-0.19213342
-0.19169222
-0.19144512
-0.19137976
-0.19139898
-0.19131738
-0.19098793
-0.19059110
-0.19039284
-0.19058843
-0.19115875
-0.19165798
-0.19181114
-0.19185534
-0.19195802
-0.19217231
-0.19248876
-0.19260112
-0.19227860
-0.19182141
-0.19152425
-0.19139457
-0.19128863
-0.19097898
-0.19042146
-0.18986470
-0.18953167
-0.18951811
-0.18965024
-0.18963890
-0.18960442
-0.18986720
-0.19033067
-0.19078436
-0.19114362
-0.19134122
-0.19133654
-0.19124325
-0.19123396
-0.19126618
-0.19113745
-0.19078783
-0.19043152
-0.19032977
-0.19058135
-0.19100319
-0.19129827
-0.19131867
-0.19112662
-0.19097422
-0.19115306
-0.19150597
-0.19176615
-0.19197370
-0.19211309
-0.19214071
-0.19224683
-0.19236717
-0.19226209
-0.19204250
-0.19189065
-0.19183258
-0.19190751
-0.19196378
-0.19186484
-0.19172435
-0.19159665
-0.19152203
-0.19149858
-0.19140769
-0.19132224
-0.19144276
-0.19163432
-0.19177507
-0.19194418
-0.19194838
-0.19170731
-0.19157167
-0.19179189
-0.19222525
-0.19252938
-0.19246163
-0.19215718
-0.19194505
-0.19196489
-0.19224676
-0.19258947
-0.19265413
-0.19244779
-0.19219670
-0.19198588
-0.19184302
-0.19178776
-0.19173798
-0.19168240
-0.19172494
-0.19186269
-0.19191150
-0.19174856
-0.19153393
-0.19150468
-0.19166953
-0.19182609
-0.19181829
-0.19162631
-0.19151603
-0.19174530
-0.19226667
-0.19282963
-0.19315722
-0.19306203
-0.19272327
-0.19247894
-0.19248890
-0.19264671
-0.19268802
-0.19256650
-0.19250132
-0.19258218
-0.19269482
-0.19287844
-0.19305859
-0.19308118
-0.19310241
-0.19329147
-0.19342489
-0.19331100
-0.19303119
-0.19273957
-0.19256772
-0.19257740
-0.19265087
-0.19263699
-0.19235176
-0.19171727
-0.19106480
-0.19081603
-0.19092028
-0.19104617
-0.19104315
-0.19099188
-0.19108433
-0.19134663
-0.19151315
-0.19141237
-0.19124565
-0.19123111
-0.19141109
-0.19168421
-0.19187938
-0.19191403
-0.19184510
-0.19179338
-0.19193350
-0.19228037
-0.19255450
-0.19257354
-0.19243742
-0.19230330
-0.19232203
-0.19246767
-0.19251020
-0.19246378
-0.19251114
-0.19257230
-0.19254995
-0.19256324
-0.19250090
-0.19224308
-0.19200545
-0.19202983
-0.19217481
-0.19220995
-0.19205589
-0.19180001
-0.19165718
-0.19167397
-0.19171266
-0.19175408
-0.19177187
-0.19172077
-0.19169503
-0.19171512
-0.19171037
-0.19176965
-0.19194581
-0.19206831
-0.19212874
-0.19226022
-0.19233668
-0.19225328
-0.19223024
-0.19236793
-0.19252307
-0.19263606
-0.19268750
-0.19262503
-0.19247221
-0.19238514
-0.19252460
-0.19273756
-0.19270121
-0.19236949
-0.19193676
-0.19154819
-0.19137921
-0.19141140
-0.19134812
-0.19100968
-0.19058662
-0.19029581
-0.19017116
-0.19010928
-0.19010053
-0.19016100
-0.19027083
-0.19053365
-0.19101252
-0.19142503
-0.19161580
-0.19173073
-0.19184608
-0.19201735
-0.19234465
-0.19260612
-0.19250930
-0.19219018
-0.19184576
-0.19155509
-0.19136637
-0.19112818
-0.19072584
-0.19027180
-0.18998432
-0.19001304
-0.19028603
-0.19042410
-0.19023014
-0.19000274
-0.19005613
-0.19029647
-0.19051294
-0.19070926
-0.19091424
-0.19106716
-0.19116624
-0.19122601
-0.19108423
-0.19069233
-0.19026910
-0.19003202
-0.19003771
-0.19018587
-0.19025463
-0.19016475
-0.19002019
-0.18994123
-0.19002359
-0.19023274
-0.19036897
-0.19031194
-0.19015073
-0.19008451
-0.19024041
-0.19049591
-0.19060522
-0.19054381
-0.19052172
-0.19073063
-0.19111805
-0.19140186
-0.19142326
-0.19135548
-0.19133498
-0.19146080
-0.19173503
-0.19199084
-0.19214424
-0.19226258
-0.19235333
-0.19243551
-0.19261708
-0.19272840
-0.19255842
-0.19225068
-0.19204142
-0.19190380
-0.19173677
-0.19147766
-0.19118084
-0.19097426
-0.19090925
-0.19094654
-0.19101523
-0.19092618
-0.19058395
-0.19032668
-0.19046337
-0.19073808
-0.19082349
-0.19075827
-0.19067730
-0.19077486
-0.19128346
-0.19194248
-0.19228335
-0.19227524
-0.19208600
-0.19188396
-0.19184465
-0.19190245
-0.19186349
-0.19175002
-0.19162208
-0.19156949
-0.19164275
-0.19166936
-0.19152213
-0.19128637
-0.19107563
-0.19102702
-0.19115507
-0.19112752
-0.19080778
-0.19045872
-0.19028863
-0.19032401
-0.19046101
-0.19056345
-0.19066121
-0.19079075
-0.19097336
-0.19138132
-0.19185097
-0.19199448
-0.19191463
-0.19192999
-0.19208642
-0.19236731
-0.19262218
-0.19257160
-0.19231041
-0.19219538
-0.19234348
-0.19273919
-0.19323513
-0.19349650
-0.19332606
-0.19299788
-0.19296739
-0.19326424
-0.19357951
-0.19379282
-0.19387598
-0.19377964
-0.19372535
-0.19373958
-0.19352539
-0.19320530
-0.19309987
-0.19309262
-0.19307840
-0.19310452
-0.19296045
-0.19260487
-0.19237390
-0.19232641
-0.19226372
-0.19202813
-0.19158673
-0.19118421
-0.19114109
-0.19140075
-0.19170783
-0.19188084
-0.19183418
-0.19169174
-0.19170659
-0.19192153
-0.19219281
-0.19238989
-0.19241025
-0.19229779
-0.19225820
-0.19222445
-0.19199230
-0.19162125
-0.19120655
-0.19073281
-0.19040318
-0.19025265
-0.18993527
-0.18943038
-0.18903105
-0.18881399
-0.18880712
-0.18897450
-0.18901960
-0.18888073
-0.18881794
-0.18897901
-0.18930774
-0.18965261
-0.18987001
-0.18997322
-0.19000794
-0.19006959
-0.19030157
-0.19057615
-0.19064025
-0.19059478
-0.19067883
-0.19085052
-0.19102186
-0.19115371
-0.19114914
-0.19096049
-0.19077062
-0.19086488
-0.19109429
-0.19111191
-0.19100042
-0.19093218
-0.19085725
-0.19081329
-0.19082304
-0.19070298
-0.19043846
-0.19021581
-0.19017835
-0.19043593
-0.19081163
-0.19101159
-0.19105342
-0.19099421
-0.19090415
-0.19101981
-0.19119614
-0.19112138
-0.19096670
-0.19087660
-0.19073104
-0.19050208
-0.19012308
-0.18960987
-0.18927416
-0.18921130
-0.18922289
-0.18927017
-0.18925657
-0.18909193
-0.18896944
-0.18915094
-0.18960359
-0.19004322
-0.19023677
-0.19022920
-0.19016894
-0.19021796
-0.19039603
-0.19044023
-0.19021619
-0.18998553
-0.18990443
-0.18993783
-0.19001630
-0.18991206
-0.18968948
-0.18962714
-0.18960383
-0.18960695
-0.18985173
-0.19001190
-0.18982047
-0.18968466
-0.18978127
-0.18999650
-0.19034136
-0.19057594
-0.19049920
-0.19031857
-0.19025324
-0.19038014
-0.19057379
-0.19047901
-0.19017783
-0.19002938
-0.18992823
-0.18980021
-0.18970606
-0.18941293
-0.18897582
-0.18878828
-0.18886325
-0.18903698
-0.18917904
-0.18906147
-0.18887386
-0.18897072
-0.18917241
-0.18925772
-0.18931205
-0.18924311
-0.18905526
-0.18895636
-0.18894446
-0.18891345
-0.18887293
-0.18883612
-0.18890099
-0.18913918
-0.18935978
-0.18942881
-0.18937317
-0.18921689
-0.18911601
-0.18924291
-0.18942399
-0.18943832
-0.18935569
-0.18929574
-0.18934434
-0.18949039
-0.18953424
-0.18942899
-0.18922181
-0.18886224
-0.18861007
-0.18870627
-0.18884906
-0.18888354
-0.18902584
-0.18917047
-0.18926483
-0.18950510
-0.18975775
-0.18986647
-0.18993124
-0.18995466
-0.19004316
-0.19031492
-0.19044852
-0.19032044
-0.19024065
-0.19026115
-0.19041646
-0.19080677
-0.19114026
-0.19120287
-0.19119985
-0.19116301
-0.19114095
-0.19123312
-0.19120270
-0.19100312
-0.19090904
-0.19101145
-0.19125363
-0.19150923
-0.19147273
-0.19122702
-0.19111462
-0.19115743
-0.19135374
-0.19170953
-0.19195549
-0.19205165
-0.19219420
-0.19229629
-0.19229876
-0.19228894
-0.19213717
-0.19182387
-0.19171657
-0.19185062
-0.19188705
-0.19175626
-0.19159696
-0.19146371
-0.19136928
-0.19136710
-0.19141712
-0.19140193
-0.19127607
-0.19121671
-0.19134139
-0.19148096
-0.19148220
-0.19144606
-0.19141605
-0.19137369
-0.19150229
-0.19176608
-0.19188392
-0.19186925
-0.19190800
-0.19205943
-0.19233803
-0.19273135
-0.19304624
-0.19324082
-0.19338986
-0.19358371
-0.19380889
-0.19385315
-0.19356307
-0.19312378
-0.19277111
-0.19261073
-0.19264112
-0.19265347
-0.19254402
-0.19251454
-0.19262027
-0.19272927
-0.19286505
-0.19294460
-0.19288836
-0.19291272
-0.19310289
-0.19329425
-0.19339471
-0.19328797
-0.19292236
-0.19261066
-0.19259040
-0.19271779
-0.19276823
-0.19266058
-0.19241806
-0.19213724
-0.19191778
-0.19182259
-0.19173919
-0.19152494
-0.19128058
-0.19115448
-0.19103691
-0.19087161
-0.19079227
-0.19082471
-0.19090859
-0.19109044
-0.19132901
-0.19140214
-0.19127298
-0.19115947
-0.19120121
-0.19140020
-0.19167432
-0.19184365
-0.19181055
-0.19166856
-0.19152085
-0.19149997
-0.19160983
-0.19154989
-0.19114185
-0.19060935
-0.19012659
-0.18975630
-0.18959335
-0.18953185
-0.18938059
-0.18926830
-0.18939357
-0.18974974
-0.19021314
-0.19055741
-0.19063776
-0.19056581
-0.19056074
-0.19073760
-0.19097804
-0.19107427
-0.19103719
-0.19105124
-0.19119063
-0.19144050
-0.19167498
-0.19169649
-0.19156817
-0.19158118
-0.19180837
-0.19207649
-0.19220162
-0.19208256
-0.19181253
-0.19168837
-0.19186758
-0.19216055
-0.19225352
-0.19207399
-0.19189614
-0.19201499
-0.19241116
-0.19286523
-0.19321030
-0.19338601
-0.19346666
-0.19358846
-0.19369649
-0.19357559
-0.19317446
-0.19272618
-0.19242632
-0.19230448
-0.19220266
-0.19195723
-0.19155117
-0.19107798
-0.19072230
-0.19068459
-0.19086505
-0.19091522
-0.19071546
-0.19055436
-0.19071512
-0.19120481
-0.19172986
-0.19192940
-0.19168723
-0.19127472
-0.19103684
-0.19106890
-0.19123170
-0.19131048
-0.19123871
-0.19117314
-0.19121106
-0.19114896
-0.19083900
-0.19050177
-0.19031576
-0.19034968
-0.19066711
-0.19109700
-0.19135176
-0.19139468
-0.19135329
-0.19143301
-0.19169264
-0.19180750
-0.19158444
-0.19133324
-0.19118768
-0.19107955
-0.19119892
-0.19147665
-0.19143235
-0.19104551
-0.19072119
-0.19065868
-0.19079626
-0.19089333
-0.19070596
-0.19041688
-0.19029630
-0.19033411
-0.19048879
-0.19081423
-0.19114532
-0.19137026
-0.19167966
-0.19209432
-0.19231194
-0.19223104
-0.19200437
-0.19176337
-0.19170704
-0.19193714
-0.19214240
-0.19209082
-0.19193162
-0.19180330
-0.19176709
-0.19193249
-0.19213002
-0.19211396
-0.19198352
-0.19200316
-0.19228769
-0.19266606
-0.19283338
-0.19274263
-0.19264275
-0.19265972
-0.19271401
-0.19268067
-0.19248810
-0.19218768
-0.19191921
-0.19187473
-0.19206185
-0.19220159
-0.19199552
-0.19162732
-0.19148061
-0.19166457
-0.19199077
-0.19222806
-0.19230271
-0.19234042
-0.19245240
-0.19262374
-0.19285635
-0.19312208
-0.19329338
-0.19333456
-0.19335218
-0.19332686
-0.19304794
-0.19259134
-0.19222313
-0.19198102
-0.19189006
-0.19198477
-0.19196569
-0.19162978
-0.19128578
-0.19115670
-0.19123260
-0.19148338
-0.19169406
-0.19156491
-0.19121630
-0.19101155
-0.19112905
-0.19140710
-0.19158669
-0.19161784
-0.19157112
-0.19153452
-0.19158867
-0.19158811
-0.19123531
-0.19073815
-0.19054610
-0.19059661
-0.19072879
-0.19092260
-0.19107289
-0.19107292
-0.19107635
-0.19126042
-0.19151842
-0.19163457
-0.19161164
-0.19160737
-0.19167394
-0.19182224
-0.19200402
-0.19202772
-0.19184736
-0.19157923
-0.19136793
-0.19138500
-0.19157327
-0.19162437
-0.19159020
-0.19172067
-0.19193280
-0.19201245
-0.19189305
-0.19156182
-0.19108281
-0.19064688
-0.19036124
-0.19013210
-0.18980417
-0.18942854
-0.18914705
-0.18892340
-0.18887202
-0.18915607
-0.18945577
-0.18950066
-0.18951266
-0.18957923
-0.18953587
-0.18943978
-0.18932918
-0.18920048
-0.18916419
-0.18927826
-0.18943450
-0.18952234
-0.18944682
-0.18931312
-0.18934073
-0.18955818
-0.18984927
-0.19000787
-0.18991639
-0.18974402
-0.18969618
-0.18973489
-0.18982335
-0.18986706
-0.18969441
-0.18947797
-0.18956307
-0.18989048
-0.19011951
-0.19001398
-0.18959776
-0.18917463
-0.18905949
-0.18925172
-0.18949611
-0.18953608
-0.18936908
-0.18924072
-0.18933910
-0.18954222
-0.18959595
-0.18944644
-0.18931142
-0.18942663
-0.18986249
-0.19046302
-0.19081874
-0.19072029
-0.19040484
-0.19016385
-0.19004316
-0.18996982
-0.18987449
-0.18978949
-0.18976875
-0.18979931
-0.18990175
-0.19012700
-0.19030414
-0.19026882
-0.19012350
-0.19000805
-0.18988656
-0.18970853
-0.18943554
-0.18903084
-0.18864480
-0.18856439
-0.18875602
-0.18886474
-0.18875706
-0.18858052
-0.18852494
-0.18874065
-0.18913391
-0.18942274
-0.18945723
-0.18927038
-0.18903167
-0.18896930
-0.18905897
-0.18916218
-0.18932370
-0.18952706
-0.18968619
-0.18978662
-0.18973115
-0.18953008
-0.18940401
-0.18936991
-0.18952501
-0.19003584
-0.19054496
-0.19059668
-0.19035628
-0.19013932
-0.19012090
-0.19028304
-0.19028568
-0.19000527
-0.18971845
-0.18952956
-0.18953497
-0.18975647
-0.18979012
-0.18955211
-0.18950149
-0.18966010
-0.18972972
-0.18964934
-0.18938007
-0.18897679
-0.18872296
-0.18874107
-0.18889152
-0.18897752
-0.18893985
-0.18897082
-0.18921810
-0.18966409
-0.19019181
-0.19042208
-0.19023777
-0.19008805
-0.19018352
-0.19035849
-0.19062496
-0.19077253
-0.19048949
-0.18997794
-0.18949754
-0.18903937
-0.18864948
-0.18831860
-0.18812027
-0.18828603
-0.18863186
-0.18881145
-0.18882207
-0.18865607
-0.18842985
-0.18856047
-0.18903490
-0.18938771
-0.18948488
-0.18937758
-0.18912936
-0.18908947
-0.18947988
-0.18998141
-0.19024009
-0.19025720
-0.19015736
-0.19004676
-0.18994377
-0.18981263
-0.18969760
-0.18959807
-0.18947176
-0.18938136
-0.18940651
-0.18940640
-0.18921231
-0.18894796
-0.18886998
-0.18899441
-0.18913245
-0.18912537
-0.18895539
-0.18874207
-0.18874582
-0.18903934
-0.18932498
-0.18933699
-0.18912475
-0.18890020
-0.18889489
-0.18920027
-0.18960664
-0.18989895
-0.19005675
-0.19011771
-0.19017235
-0.19040200
-0.19066509
-0.19060130
-0.19031989
-0.19022948
-0.19038979
-0.19056130
-0.19065063
-0.19063765
-0.19042847
-0.19013783
-0.19002501
-0.19000444
-0.18978873
-0.18948879
-0.18937685
-0.18942607
-0.18958475
-0.18980816
-0.18991723
-0.18984063
-0.18978464
-0.18992295
-0.19018244
-0.19036158
-0.19040987
-0.19039832
-0.19037830
-0.19042763
-0.19053205
-0.19045618
-0.19004097
-0.18941962
-0.18885125
-0.18850704
-0.18846978
-0.18863117
-0.18876885
-0.18875560
-0.18879446
-0.18904499
-0.18928904
-0.18935243
-0.18939530
-0.18948439
-0.18954739
-0.18964244
-0.18968431
-0.18953813
-0.18927551
-0.18908714
-0.18916190
-0.18950735
-0.18981412
-0.18993142
-0.18998206
-0.18990585
-0.18971772
-0.18961243
-0.18948890
-0.18919801
-0.18894422
-0.18887376
-0.18894123
-0.18907594
-0.18903264
-0.18869351
-0.18829577
-0.18797294
-0.18775859
-0.18763616
-0.18744366
-0.18716527
-0.18705363
-0.18721723
-0.18757122
-0.18789901
-0.18799167
-0.18795060
-0.18807785
-0.18846978
-0.18889673
-0.18903084
-0.18875928
-0.18830913
-0.18798304
-0.18789877
-0.18796455
-0.18794217
-0.18773784
-0.18744800
-0.18723281
-0.18730889
-0.18768213
-0.18798064
-0.18801353
-0.18799594
-0.18806345
-0.18817071
-0.18823753
-0.18818057
-0.18817307
-0.18842347
-0.18875928
-0.18894741
-0.18902598
-0.18892170
-0.18862263
-0.18842566
-0.18856241
-0.18883067
-0.18890793
-0.18877732
-0.18863089
-0.18863297
-0.18881905
-0.18912402
-0.18935673
-0.18939124
-0.18937792
-0.18948602
-0.18959752
-0.18965729
-0.18977510
-0.18997919
-0.19025924
-0.19058558
-0.19080594
-0.19068962
-0.19025467
-0.18975477
-0.18937990
-0.18914529
-0.18898668
-0.18876101
-0.18835045
-0.18794071
-0.18781472
-0.18793662
-0.18812562
-0.18828634
-0.18835572
-0.18840738
-0.18867470
-0.18910622
-0.18939749
-0.18958343
-0.18979928
-0.18994852
-0.18999226
-0.19001752
-0.19002748
-0.18997922
-0.18984191
-0.18967713
-0.18965996
-0.18972577
-0.18959027
-0.18927062
-0.18902074
-0.18905464
-0.18952227
-0.19019278
-0.19063783
-0.19075359
-0.19069177
-0.19061743
-0.19061708
-0.19061292
-0.19054381
-0.19036179
-0.19009765
-0.18999889
-0.19016339
-0.19026167
-0.19018105
-0.19017273
-0.19022240
-0.19021016
-0.19017581
-0.18994179
-0.18945709
-0.18907334
-0.18898245
-0.18901786
-0.18913259
-0.18927486
-0.18927850
-0.18922188
-0.18939149
-0.18982318
-0.19025848
-0.19054003
-0.19068237
-0.19069368
-0.19066086
-0.19072809
-0.19084254
-0.19084257
-0.19078891
-0.19082550
-0.19094779
-0.19094942
-0.19072768
-0.19036373
-0.19004146
-0.18996413
-0.19024249
-0.19058739
-0.19070821
-0.19066069
-0.19049674
-0.19022268
-0.19001641
-0.18985229
-0.18950524
-0.18906317
-0.18874551
-0.18867314
-0.18885406
-0.18909418
-0.18919639
-0.18918459
-0.18917342
-0.18932596
-0.18961972
-0.18974023
-0.18954635
-0.18930250
-0.18918917
-0.18931551
-0.18964560
-0.18986169
-0.18991251
-0.19005502
-0.19029650
-0.19045879
-0.19046999
-0.19023434
-0.18982568
-0.18946104
-0.18930375
-0.18944661
-0.18969957
-0.18969795
-0.18948345
-0.18940064
-0.18950017
-0.18965587
-0.18985322
-0.19003362
-0.19010716
-0.19022428
-0.19059655
-0.19102244
-0.19120461
-0.19121075
-0.19112024
-0.19095116
-0.19086526
-0.19078061
-0.19044706
-0.18997235
-0.18960942
-0.18945261
-0.18954427
-0.18968959
-0.18955041
-0.18923760
-0.18899979
-0.18890328
-0.18895056
-0.18892704
-0.18867012
-0.18844148
-0.18836908
-0.18834916
-0.18841431
-0.18856622
-0.18861358
-0.18859075
-0.18870110
-0.18898560
-0.18923489
-0.18920280
-0.18899095
-0.18887279
-0.18900156
-0.18937549
-0.18977222
-0.18986571
-0.18974017
-0.18969236
-0.18983120
-0.19010608
-0.19029605
-0.19013817
-0.18972587
-0.18924353
-0.18884157
-0.18861687
-0.18837549
-0.18795844
-0.18770534
-0.18773389
-0.18775324
-0.18772053
-0.18768983
-0.18752970
-0.18740026
-0.18755325
-0.18793697
-0.18845206
-0.18891570
-0.18908763
-0.18906213
-0.18905741
-0.18912402
-0.18930441
-0.18947051
-0.18945216
-0.18943384
-0.18954992
-0.18951048
-0.18920981
-0.18880743
-0.18832117
-0.18787869
-0.18771831
-0.18779505
-0.18792035
-0.18804277
-0.18813578
-0.18830438
-0.18871429
-0.18914522
-0.18930257
-0.18932786
-0.18945528
-0.18973069
-0.19003691
-0.19021064
-0.19015049
-0.18993249
-0.18970436
-0.18968671
-0.18992670
-0.19012516
-0.19007899
-0.19002675
-0.19017665
-0.19035315
-0.19041872
-0.19046958
-0.19051256
-0.19055041
-0.19076879
-0.19111288
-0.19130712
-0.19132686
-0.19128565
-0.19120728
-0.19122747
-0.19129317
-0.19106182
-0.19051103
-0.18989849
-0.18938913
-0.18919954
-0.18938812
-0.18960338
-0.18961313
-0.18953760
-0.18949847
-0.18959984
-0.18977687
-0.18985007
-0.18983220
-0.18977683
-0.18965465
-0.18960796
-0.18958076
-0.18933546
-0.18901644
-0.18889277
-0.18895168
-0.18920218
-0.18956671
-0.18985378
-0.19007115
-0.19038368
-0.19091761
-0.19154943
-0.19193069
-0.19202879
-0.19208371
-0.19204919
-0.19181693
-0.19161868
-0.19165528
-0.19183303
-0.19200555
-0.19221484
-0.19253455
-0.19277229
-0.19271748
-0.19254159
-0.19240994
-0.19225505
-0.19216350
-0.19218188
-0.19204416
-0.19163273
-0.19115604
-0.19080753
-0.19059415
-0.19035048
-0.19009873
-0.18999802
-0.19007143
-0.19029928
-0.19059748
-0.19069195
-0.19054829
-0.19042798
-0.19042271
-0.19059211
-0.19083556
-0.19091837
-0.19087938
-0.19086259
-0.19081721
-0.19087150
-0.19099077
-0.19080885
-0.19039680
-0.19019812
-0.19033581
-0.19072376
-0.19116957
-0.19139908
-0.19144998
-0.19154132
-0.19180282
-0.19214192
-0.19219534
-0.19190744
-0.19158746
-0.19127933
-0.19098546
-0.19085843
-0.19060210
-0.19009190
-0.18985263
-0.19000600
-0.19009533
-0.18994831
-0.18959700
-0.18915836
-0.18888642
-0.18890245
-0.18915999
-0.18953303
-0.18973680
-0.18978551
-0.18995965
-0.19028134
-0.19063627
-0.19084500
-0.19067165
-0.19032745
-0.19018265
-0.19012829
-0.19011975
-0.19022775
-0.19023132
-0.19007864
-0.19008128
-0.19023149
-0.19026372
-0.19007021
-0.18979869
-0.18969742
-0.18986079
-0.19011209
-0.19033768
-0.19043825
-0.19035381
-0.19032311
-0.19051943
-0.19077375
-0.19092146
-0.19095618
-0.19087952
-0.19076108
-0.19071029
-0.19076736
-0.19084219
-0.19082252
-0.19082769
-0.19115909
-0.19177891
-0.19232047
-0.19253435
-0.19240221
-0.19218421
-0.19219125
-0.19234882
-0.19243152
-0.19234608
-0.19203989
-0.19168618
-0.19157472
-0.19157979
-0.19153223
-0.19153112
-0.19150212
-0.19143159
-0.19154659
-0.19177395
-0.19185735
-0.19178110
-0.19154222
-0.19130282
-0.19145844
-0.19184174
-0.19195071
-0.19183376
-0.19173909
-0.19173833
-0.19197495
-0.19237945
-0.19256300
-0.19245587
-0.19227721
-0.19217016
-0.19212138
-0.19198748
-0.19167817
-0.19128471
-0.19094547
-0.19083435
-0.19094151
-0.19087178
-0.19044765
-0.19012326
-0.19018445
-0.19035631
-0.19043683
-0.19038056
-0.19014716
-0.18991102
-0.18989225
-0.19003545
-0.19019135
-0.19025324
-0.19022081
-0.19029185
-0.19064227
-0.19109734
-0.19140467
-0.19152786
-0.19151943
-0.19151103
-0.19163561
-0.19184001
-0.19200486
-0.19214008
-0.19226837
-0.19236131
-0.19238677
-0.19225883
-0.19199185
-0.19169337
-0.19147790
-0.19152935
-0.19185985
-0.19206862
-0.19186363
-0.19146035
-0.19114036
-0.19103688
-0.19115646
-0.19128214
-0.19125703
-0.19113373
-0.19106165
-0.19129262
-0.19170499
-0.19182439
-0.19162780
-0.19159387
-0.19170551
-0.19179178
-0.19196895
-0.19213037
-0.19195400
-0.19150971
-0.19121314
-0.19116721
-0.19107011
-0.19072816
-0.19038202
-0.19024891
-0.19030844
-0.19056595
-0.19096583
-0.19125380
-0.19135974
-0.19153438
-0.19189787
-0.19234125
-0.19264310
-0.19268917
-0.19255995
-0.19248168
-0.19258347
-0.19279997
-0.19290470
-0.19271484
-0.19232235
-0.19202487
-0.19196510
-0.19200368
-0.19203254
-0.19202980
-0.19197412
-0.19196885
-0.19209304
-0.19225911
-0.19233050
-0.19227232
-0.19211649
-0.19195889
-0.19174318
-0.19139239
-0.19105783
-0.19092531
-0.19100389
-0.19126726
-0.19162530
-0.19185430
-0.19187088
-0.19180899
-0.19180691
-0.19184691
-0.19173090
-0.19139544
-0.19098997
-0.19066693
-0.19063398
-0.19096128
-0.19133678
-0.19152689
-0.19157663
-0.19147533
-0.19135111
-0.19133855
-0.19125848
-0.19104385
-0.19085836
-0.19065583
-0.19046253
-0.19039166
-0.19025918
-0.19004749
-0.18997707
-0.19000108
-0.19010751
-0.19035135
-0.19043940
-0.19038635
-0.19065580
-0.19122147
-0.19161274
-0.19169205
-0.19148134
-0.19095230
-0.19035253
-0.19001467
-0.18990443
-0.18976604
-0.18953892
-0.18933994
-0.18926674
-0.18938954
-0.18962752
-0.18979231
-0.18989350
-0.18996260
-0.18993201
-0.18987192
-0.18978863
-0.18944862
-0.18890630
-0.18840151
-0.18806518
-0.18802519
-0.18816246
-0.18807670
-0.18783883
-0.18781000
-0.18800767
-0.18833442
-0.18861045
-0.18854593
-0.18833692
-0.18838968
-0.18860213
-0.18877937
-0.18893638
-0.18894088
-0.18866558
-0.18839617
-0.18833779
-0.18832720
-0.18821137
-0.18796222
-0.18760470
-0.18730202
-0.18728943
-0.18749403
-0.18763214
-0.18767110
-0.18768622
-0.18773357
-0.18794720
-0.18824991
-0.18831409
-0.18817415
-0.18817536
-0.18833508
-0.18852557
-0.18868761
-0.18870981
-0.18862856
-0.18869337
-0.18900968
-0.18930632
-0.18928009
-0.18908922
-0.18902151
-0.18909075
-0.18928294
-0.18959970
-0.18974252
-0.18960199
-0.18958666
-0.18981784
-0.18999667
-0.19007292
-0.19009145
-0.18998328
-0.18989655
-0.18994723
-0.18995497
-0.18980642
-0.18964053
-0.18952890
-0.18947100
-0.18951849
-0.18965368
-0.18977420
-0.18981149
-0.18983789
-0.19000232
-0.19033976
-0.19065205
-0.19068466
-0.19047551
-0.19040789
-0.19054753
-0.19058263
-0.19051901
-0.19047953
-0.19025414
-0.18999816
-0.19010244
-0.19039950
-0.19056959
-0.19073038
-0.19087220
-0.19091213
-0.19096597
-0.19095848
-0.19069784
-0.19036533
-0.19015906
-0.19008909
-0.19009578
-0.19005297
-0.18988288
-0.18967432
-0.18962496
-0.18996347
-0.19065951
-0.19132894
-0.19179376
-0.19214862
-0.19234701
-0.19253871
-0.19289201
-0.19310192
-0.19305554
-0.19303233
-0.19299827
-0.19288288
-0.19285548
-0.19272587
-0.19222802
-0.19173406
-0.19150812
-0.19131010
-0.19106838
-0.19087185
-0.19061188
-0.19033619
-0.19031295
-0.19048703
-0.19058888
-0.19054687
-0.19036647
-0.19016305
-0.19019177
-0.19031142
-0.19012877
-0.18974287
-0.18947946
-0.18930039
-0.18919163
-0.18916013
-0.18895761
-0.18854419
-0.18824648
-0.18822528
-0.18842639
-0.18874932
-0.18901963
-0.18915094
-0.18920318
-0.18931118
-0.18953525
-0.18968168
-0.18960109
-0.18951835
-0.18963377
-0.18988705
-0.19023614
-0.19050500
-0.19043565
-0.19017137
-0.19000368
-0.18996229
-0.18992486
-0.18966610
-0.18913515
-0.18865465
-0.18849358
-0.18853989
-0.18852342
-0.18830493
-0.18791619
-0.18753802
-0.18733546
-0.18737747
-0.18757254
-0.18771859
-0.18774676
-0.18781166
-0.18800399
-0.18829317
-0.18855828
-0.18861025
-0.18849438
-0.18846167
-0.18856692
-0.18869566
-0.18884819
-0.18903923
-0.18922289
-0.18945327
-0.18980802
-0.19007032
-0.18998120
-0.18963342
-0.18927749
-0.18904551
-0.18897988
-0.18899861
-0.18885464
-0.18848338
-0.18822209
-0.18826008
-0.18838243
-0.18841206
-0.18834521
-0.18816607
-0.18810931
-0.18843502
-0.18890731
-0.18922185
-0.18942489
-0.18951395
-0.18948737
-0.18951672
-0.18953806
-0.18935857
-0.18909800
-0.18898376
-0.18905162
-0.18925036
-0.18937848
-0.18932641
-0.18926303
-0.18932294
-0.18951488
-0.18979553
-0.18986921
-0.18952952
-0.18900312
-0.18861864
-0.18849892
-0.18853715
-0.18842489
-0.18808728
-0.18781062
-0.18780750
-0.18802244
-0.18836394
-0.18864088
-0.18868306
-0.18857608
-0.18849667
-0.18859033
-0.18879446
-0.18882224
-0.18861611
-0.18855589
-0.18884913
-0.18923205
-0.18941192
-0.18934684
-0.18912860
-0.18887782
-0.18884746
-0.18920010
-0.18963602
-0.18980351
-0.18986051
-0.19006879
-0.19032418
-0.19058881
-0.19091418
-0.19112704
-0.19121942
-0.19151603
-0.19192548
-0.19204725
-0.19190189
-0.19166495
-0.19133529
-0.19111961
-0.19111042
-0.19108686
-0.19098224
-0.19085163
-0.19065878
-0.19060688
-0.19086158
-0.19100111
-0.19069562
-0.19026813
-0.19006394
-0.19005148
-0.19006529
-0.18990536
-0.18948193
-0.18899039
-0.18874592
-0.18884018
-0.18907795
-0.18916711
-0.18902886
-0.18887740
-0.18880327
-0.18871588
-0.18861056
-0.18857840
-0.18865684
-0.18894685
-0.18947565
-0.19004388
-0.19042906
-0.19057531
-0.19055474
-0.19055329
-0.19073264
-0.19101304
-0.19118227
-0.19118764
-0.19111091
-0.19114768
-0.19133300
-0.19144321
-0.19131818
-0.19098654
-0.19056147
-0.19030004
-0.19032658
-0.19031496
-0.19005890
-0.18973992
-0.18953389
-0.18952297
-0.18970991
-0.18992052
-0.19004187
-0.19013595
-0.19034306
-0.19074967
-0.19110449
-0.19116031
-0.19101693
-0.19080372
-0.19057202
-0.19055825
-0.19066662
-0.19055224
-0.19032492
-0.19031461
-0.19057795
-0.19095834
-0.19115781
-0.19095060
-0.19048456
-0.19007701
-0.18992708
-0.19003715
-0.19013758
-0.18997454
-0.18964629
-0.18935128
-0.18923142
-0.18930219
-0.18941521
-0.18944120
-0.18938181
-0.18939624
-0.18959294
-0.18979289
-0.18979907
-0.18974596
-0.18972781
-0.18976039
-0.18999553
-0.19033726
-0.19047044
-0.19042933
-0.19047981
-0.19065673
-0.19082620
-0.19081517
-0.19062069
-0.19046021
-0.19039988
-0.19033931
-0.19030289
-0.19023319
-0.19000985
-0.18978228
-0.18976566
-0.18991691
-0.19004326
-0.19000146
-0.18977125
-0.18956563
-0.18964053
-0.18992593
-0.19007993
-0.18998713
-0.18971973
-0.18931857
-0.18901162
-0.18904628
-0.18911663
-0.18885621
-0.18849147
-0.18825071
-0.18803545
-0.18787938
-0.18783633
-0.18770821
-0.18749837
-0.18747360
-0.18765226
-0.18789721
-0.18811812
-0.18818907
-0.18807774
-0.18803601
-0.18818050
-0.18826709
-0.18813245
-0.18792340
-0.18782776
-0.18787442
-0.18801790
-0.18818133
-0.18828668
-0.18836387
-0.18854402
-0.18879085
-0.18895317
-0.18905048
-0.18918764
-0.18928086
-0.18940613
-0.18971796
-0.19002220
-0.19012104
-0.19003816
-0.18980618
-0.18962829
-0.18964761
-0.18955068
-0.18920187
-0.18886138
-0.18863505
-0.18849112
-0.18836460
-0.18807420
-0.18767037
-0.18731302
-0.18712232
-0.18733737
-0.18787504
-0.18822906
-0.18838132
-0.18849053
-0.18851887
-0.18864522
-0.18891050
-0.18901773
-0.18905068
-0.18917907
-0.18927468
-0.18945140
-0.18973663
-0.18980493
-0.18968726
-0.18958919
-0.18950978
-0.18949480
-0.18938115
-0.18898120
-0.18856352
-0.18836883
-0.18838937
-0.18859533
-0.18863599
-0.18836651
-0.18820235
-0.18829661
-0.18854295
-0.18892389
-0.18915233
-0.18906459
-0.18897474
-0.18904048
-0.18923729
-0.18950926
-0.18957150
-0.18934164
-0.18914695
-0.18912621
-0.18919666
-0.18925699
-0.18924214
-0.18914091
-0.18894089
-0.18867429
-0.18853129
-0.18841459
-0.18813762
-0.18789638
-0.18788632
-0.18798376
-0.18811802
-0.18819878
-0.18812322
-0.18799802
-0.18799258
-0.18814959
-0.18845095
-0.18869462
-0.18865326
-0.18848099
-0.18848266
-0.18870037
-0.18890273
-0.18884441
-0.18864154
-0.18856210
-0.18864057
-0.18874017
-0.18879688
-0.18882911
-0.18886502
-0.18889551
-0.18893124
-0.18902706
-0.18913144
-0.18919642
-0.18925588
-0.18937695
-0.18963019
-0.18992583
-0.19002210
-0.18993499
-0.18991653
-0.19006282
-0.19030230
-0.19043613
-0.19025664
-0.18980472
-0.18933404
-0.18910300
-0.18919923
-0.18932235
-0.18920554
-0.18902980
-0.18898328
-0.18906345
-0.18930313
-0.18958333
-0.18962232
-0.18945192
-0.18935791
-0.18946600
-0.18965635
-0.18977829
-0.18983026
-0.18982259
-0.18976431
-0.18975873
-0.18978051
-0.18963866
-0.18940592
-0.18918782
-0.18891220
-0.18866145
-0.18852511
-0.18834722
-0.18812624
-0.18799768
-0.18794765
-0.18795171
-0.18797280
-0.18791379
-0.18782405
-0.18778707
-0.18779473
-0.18783151
-0.18775425
-0.18753687
-0.18742361
-0.18756303
-0.18783532
-0.18811379
-0.18825546
-0.18817769
-0.18804642
-0.18808069
-0.18828023
-0.18837990
-0.18823385
-0.18796080
-0.18772143
-0.18757951
-0.18759658
-0.18762562
-0.18748737
-0.18733196
-0.18731142
-0.18740672
-0.18766280
-0.18792684
-0.18793277
-0.18778627
-0.18765507
-0.18749039
-0.18732665
-0.18720898
-0.18711569
-0.18707469
-0.18723007
-0.18760713
-0.18797010
-0.18803382
-0.18792063
-0.18792566
-0.18806574
-0.18830903
-0.18857653
-0.18866006
-0.18856529
-0.18844751
-0.18827236
-0.18808236
-0.18796413
-0.18776341
-0.18752151
-0.18752879
-0.18783511
-0.18824259
-0.18852213
-0.18846215
-0.18821907
-0.18812655
-0.18819090
-0.18825092
-0.18820672
-0.18795636
-0.18778654
-0.18807937
-0.18858190
-0.18881822
-0.18882627
-0.18881603
-0.18889142
-0.18917616
-0.18951589
-0.18958707
-0.18941570
-0.18917363
-0.18897839
-0.18901311
-0.18927885
-0.18954669
-0.18975404
-0.18997252
-0.19026677
-0.19075498
-0.19129047
-0.19151006
-0.19141560
-0.19132425
-0.19143117
-0.19166006
-0.19182134
-0.19173052
-0.19146961
-0.19136564
-0.19152473
-0.19174096
-0.19185052
-0.19190408
-0.19193624
-0.19200073
-0.19220461
-0.19247370
-0.19257479
-0.19249924
-0.19237595
-0.19230642
-0.19240300
-0.19265240
-0.19276258
-0.19261424
-0.19247145
-0.19256515
-0.19272861
-0.19269541
-0.19243537
-0.19207549
-0.19176032
-0.19165094
-0.19168695
-0.19164612
-0.19153143
-0.19147343
-0.19143516
-0.19141171
-0.19145303
-0.19145778
-0.19137480
-0.19131676
-0.19131132
-0.19121026
-0.19086942
-0.19034681
-0.18986068
-0.18952661
-0.18942770
-0.18955891
-0.18963852
-0.18946493
-0.18917012
-0.18888208
-0.18870811
-0.18874339
-0.18875768
-0.18855401
-0.18829765
-0.18809262
-0.18795899
-0.18797957
-0.18798297
-0.18788843
-0.18796749
-0.18830400
-0.18867540
-0.18902918
-0.18924311
-0.18921852
-0.18913696
-0.18918445
-0.18931118
-0.18943200
-0.18945244
-0.18939294
-0.18938649
-0.18945719
-0.18950038
-0.18936464
-0.18894918
-0.18843894
-0.18815951
-0.18820027
-0.18845726
-0.18874800
-0.18887254
-0.18882221
-0.18877028
-0.18878405
-0.18888823
-0.18902602
-0.18910522
-0.18924221
-0.18954187
-0.18977867
-0.18972528
-0.18949716
-0.18929855
-0.18925113
-0.18942392
-0.18978440
-0.19008680
-0.19011319
-0.18995431
-0.18993985
-0.19010546
-0.19017186
-0.19007327
-0.18985843
-0.18951877
-0.18929456
-0.18945820
-0.18972775
-0.18974187
-0.18953133
-0.18931517
-0.18923968
-0.18925338
-0.18914844
-0.18890592
-0.18861861
-0.18833934
-0.18825480
-0.18844370
-0.18861340
-0.18850701
-0.18817515
-0.18782561
-0.18763349
-0.18759117
-0.18749070
-0.18726198
-0.18704205
-0.18701356
-0.18726330
-0.18755478
-0.18756494
-0.18729897
-0.18702102
-0.18695511
-0.18709915
-0.18722688
-0.18729068
-0.18745473
-0.18764018
-0.18774908
-0.18786880
-0.18794148
-0.18783973
-0.18771588
-0.18777867
-0.18805134
-0.18838899
-0.18854926
-0.18851624
-0.18847655
-0.18856387
-0.18884150
-0.18916759
-0.18920370
-0.18895830
-0.18872487
-0.18861979
-0.18865486
-0.18876715
-0.18871616
-0.18852088
-0.18838160
-0.18830448
-0.18825876
-0.18823742
-0.18816156
-0.18813547
-0.18835197
-0.18870596
-0.18892091
-0.18889804
-0.18876944
-0.18876598
-0.18901870
-0.18943398
-0.18979310
-0.18993166
-0.18989884
-0.18994356
-0.19024995
-0.19070922
-0.19107077
-0.19110397
-0.19079314
-0.19042132
-0.19029088
-0.19042434
-0.19074082
-0.19117533
-0.19158926
-0.19189506
-0.19220797
-0.19254066
-0.19268747
-0.19260307
-0.19242729
-0.19222372
-0.19199126
-0.19180368
-0.19164452
-0.19145407
-0.19127517
-0.19126955
-0.19143534
-0.19155696
-0.19146451
-0.19116801
-0.19079983
-0.19057129
-0.19056446
-0.19056286
-0.19040370
-0.19018532
-0.19002758
-0.18999278
-0.19011170
-0.19023108
-0.19018737
-0.19006151
-0.18999990
-0.19001100
-0.19002206
-0.19004808
-0.19009783
-0.19011268
-0.19018813
-0.19038108
-0.19038819
-0.19006040
-0.18974807
-0.18959637
-0.18948324
-0.18941310
-0.18929033
-0.18900881
-0.18872230
-0.18860875
-0.18866915
-0.18888687
-0.18899244
-0.18876497
-0.18841653
-0.18820818
-0.18821435
-0.18847221
-0.18884878
-0.18910709
-0.18929314
-0.18958211
-0.19001911
-0.19045636
-0.19067339
-0.19069413
-0.19076507
-0.19097648
-0.19122750
-0.19132988
-0.19105714
-0.19050212
-0.19016721
-0.19030084
-0.19059894
-0.19076174
-0.19064705
-0.19023208
-0.18981246
-0.18978790
-0.18999001
-0.19005384
-0.18994529
-0.18978342
-0.18964320
-0.18962908
-0.18967914
-0.18961080
-0.18939131
-0.18920051
-0.18929782
-0.18966131
-0.18989395
-0.18986044
-0.18978877
-0.18975949
-0.18983345
-0.19009724
-0.19033896
-0.19042732
-0.19051318
-0.19055252
-0.19041102
-0.19018855
-0.18988156
-0.18943398
-0.18905231
-0.18895990
-0.18918164
-0.18953899
-0.18981950
-0.19000038
-0.19019000
-0.19038507
-0.19046923
-0.19033626
-0.19003108
-0.18975682
-0.18966093
-0.18977236
-0.19004291
-0.19029064
-0.19041136
-0.19046739
-0.19055207
-0.19072289
-0.19090824
-0.19089575
-0.19074134
-0.19064404
-0.19058912
-0.19065170
-0.19090675
-0.19104683
-0.19093180
-0.19087244
-0.19106647
-0.19136738
-0.19160844
-0.19168407
-0.19158968
-0.19144866
-0.19138375
-0.19138649
-0.19131773
-0.19102345
-0.19053469
-0.19003271
-0.18979231
-0.18991286
-0.19014914
-0.19018837
-0.19001079
-0.18979057
-0.18971723
-0.18980858
-0.18980889
-0.18958298
-0.18933782
-0.18939808
-0.18973885
-0.19005238
-0.19005374
-0.18983310
-0.18966929
-0.18970596
-0.18993391
-0.19014671
-0.19013394
-0.18991324
-0.18967134
-0.18957878
-0.18963765
-0.18963405
-0.18943260
-0.18915184
-0.18898241
-0.18900753
-0.18918084
-0.18935232
-0.18948189
-0.18966454
-0.19001336
-0.19042371
-0.19067602
-0.19077205
-0.19087556
-0.19101263
-0.19122990
-0.19160660
-0.19184545
-0.19166745
-0.19130226
-0.19107375
-0.19108975
-0.19128349
-0.19132075
-0.19106865
-0.19081645
-0.19070645
-0.19071578
-0.19088878
-0.19100871
-0.19086925
-0.19064085
-0.19040862
-0.19008787
-0.18971567
-0.18936783
-0.18911098
-0.18909689
-0.18936557
-0.18970846
-0.18989006
-0.18981402
-0.18957687
-0.18941303
-0.18950614
-0.18980254
-0.19000930
-0.18987220
-0.18942462
-0.18895927
-0.18879092
-0.18898599
-0.18924360
-0.18922015
-0.18897138
-0.18875741
-0.18867789
-0.18867179
-0.18877475
-0.18902109
-0.18936654
-0.18976781
-0.19008281
-0.19017474
-0.19014019
-0.19012277
-0.19023617
-0.19061236
-0.19104437
-0.19109516
-0.19080153
-0.19047228
-0.19028384
-0.19042018
-0.19078401
-0.19093898
-0.19081690
-0.19062960
-0.19044408
-0.19044925
-0.19069056
-0.19089954
-0.19099049
-0.19096638
-0.19077243
-0.19063443
-0.19068331
-0.19069514
-0.19064577
-0.19073468
-0.19095532
-0.19118726
-0.19123878
-0.19100392
-0.19067925
-0.19044137
-0.19032235
-0.19035013
-0.19040724
-0.19028991
-0.18997044
-0.18971595
-0.18986515
-0.19027846
-0.19052685
-0.19061472
-0.19068012
-0.19059217
-0.19049015
-0.19051127
-0.19032256
-0.18983345
-0.18936915
-0.18908125
-0.18901533
-0.18910012
-0.18907802
-0.18899299
-0.18907979
-0.18932127
-0.18960144
-0.18985687
-0.19004843
-0.19017831
-0.19029654
-0.19048265
-0.19060799
-0.19040626
-0.18997221
-0.18957524
-0.18922764
-0.18908999
-0.18924950
-0.18934497
-0.18933730
-0.18958555
-0.18989874
-0.19005065
-0.19025272
-0.19039367
-0.19026427
-0.19020457
-0.19044831
-0.19077045
-0.19093308
-0.19085284
-0.19065129
-0.19059651
-0.19078610
-0.19108454
-0.19123801
-0.19111167
-0.19081628
-0.19058364
-0.19049573
-0.19046819
-0.19037036
-0.19012853
-0.18985686
-0.18971456
-0.18966641
-0.18955530
-0.18932800
-0.18919340
-0.18929883
-0.18960161
-0.18990918
-0.18995681
-0.18976500
-0.18960657
-0.18964324
-0.18990238
-0.19034417
-0.19068685
-0.19078016
-0.19084726
-0.19107847
-0.19154964
-0.19223843
-0.19279303
-0.19296847
-0.19298755
-0.19298019
-0.19289742
-0.19288930
-0.19302404
-0.19301325
-0.19274578
-0.19242184
-0.19209845
-0.19163248
-0.19100184
-0.19039978
-0.19004718
-0.19007282
-0.19033931
-0.19044602
-0.19022060
-0.18988587
-0.18966731
-0.18961462
-0.18960678
-0.18942115
-0.18904204
-0.18870669
-0.18854600
-0.18861101
-0.18890019
-0.18919378
-0.18935184
-0.18946996
-0.18968518
-0.19007694
-0.19053462
-0.19080785
-0.19096982
-0.19123652
-0.19151943
-0.19168011
-0.19159679
-0.19121293
-0.19072625
-0.19034479
-0.19001839
-0.18977565
-0.18956782
-0.18918782
-0.18882790
-0.18884108
-0.18913318
-0.18947024
-0.18974863
-0.18987619
-0.18993319
-0.19003771
-0.19013117
-0.19016051
-0.19012003
-0.18997363
-0.18986557
-0.18994897
-0.19013013
-0.19022743
-0.19010609
-0.18993010
-0.19015087
-0.19073364
-0.19106716
-0.19094762
-0.19066513
-0.19038028
-0.19022251
-0.19034493
-0.19060317
-0.19073378
-0.19068615
-0.19057056
-0.19052418
-0.19045566
-0.19018612
-0.18980413
-0.18952678
-0.18939960
-0.18936720
-0.18932582
-0.18918906
-0.18903778
-0.18897308
-0.18911323
-0.18953695
-0.19001679
-0.19024405
-0.19026445
-0.19025553
-0.19032658
-0.19049573
-0.19058340
-0.19042066
-0.19004839
-0.18953240
-0.18908617
-0.18893697
-0.18890661
-0.18878603
-0.18875914
-0.18890196
-0.18900052
-0.18902057
-0.18904114
-0.18903535
-0.18904097
-0.18927853
-0.18978096
-0.19023375
-0.19042396
-0.19045792
-0.19050371
-0.19057049
-0.19067109
-0.19073784
-0.19065961
-0.19042444
-0.19017286
-0.19010608
-0.19028110
-0.19052154
-0.19072504
-0.19085405
-0.19087712
-0.19086405
-0.19088170
-0.19077510
-0.19045681
-0.19006633
-0.18985059
-0.18991279
-0.19004333
-0.19003088
-0.19000239
-0.19003292
-0.19012451
-0.19035163
-0.19051055
-0.19040831
-0.19027711
-0.19022941
-0.19030778
-0.19061240
-0.19082772
-0.19069427
-0.19052369
-0.19046971
-0.19046139
-0.19051214
-0.19042913
-0.19013911
-0.18992687
-0.18984410
-0.18985624
-0.19005880
-0.19032602
-0.19049407
-0.19064202
-0.19078041
-0.19095521
-0.19120950
-0.19134937
-0.19128120
-0.19114216
-0.19112964
-0.19135350
-0.19166312
-0.19171866
-0.19148918
-0.19112374
-0.19081388
-0.19068924
-0.19049535
-0.19009963
-0.18993922
-0.19007635
-0.19020221
-0.19032006
-0.19039943
-0.19030323
-0.19019479
-0.19026407
-0.19053615
-0.19090928
-0.19103563
-0.19082637
-0.19060862
-0.19051852
-0.19055342
-0.19066478
-0.19060619
-0.19036616
-0.19013717
-0.19003511
-0.19023198
-0.19063186
-0.19080653
-0.19083827
-0.19096191
-0.19105505
-0.19116669
-0.19121397
-0.19095688
-0.19078221
-0.19095459
-0.19101443
-0.19092978
-0.19074412
-0.19022157
-0.18979376
-0.18990276
-0.19029515
-0.19086561
-0.19136634
-0.19141303
-0.19152397
-0.19192073
-0.19172025
