3.755,3.792,3.766,3.766,3.763,3.759,3.758,3.741,3.755,3.791,3.791,3.784,3.797,3.811,3.827,3.823,3.797,3.802,3.824,3.816,3.813,3.822,3.817,3.82,3.82,3.796,3.78,3.78,3.778,3.782,3.79,3.789,3.792,3.795,3.786,3.778,3.78,3.779,3.77,3.765,3.766,3.761,3.754,3.755,3.755,3.755,3.755,3.746,3.738,3.745,3.744,3.735,3.742,3.754,3.757,3.762,3.766,3.76,3.764,3.789,3.809,3.807,3.8,3.787,3.742,3.669,3.584,3.478,3.385,3.343,3.32,3.311,3.345,3.377,3.363,3.344,3.349,3.375,3.432,3.506,3.566,3.609,3.642,3.674,3.703,3.72,3.725,3.725,3.726,3.736,3.75,3.755,3.755,3.756,3.755,3.76,3.766,3.761,3.755,3.756,3.747,3.727,3.726,3.746,3.756,3.755,3.76,3.756,3.74,3.745,3.765,3.764,3.755,3.756,3.754,3.754,3.757,3.753,3.754,3.764,3.763,3.76,3.764,3.763,3.754,3.753,3.76,3.749,3.726,3.738,3.771,3.766,3.743,3.742,3.739,3.729,3.74,3.764,3.778,3.782,3.778,3.766,3.757,3.755,3.755,3.745,3.736,3.741,3.742,3.734,3.729,3.726,3.724,3.724,3.712,3.694,3.689,3.685,3.67,3.662,3.666,3.67,3.669,3.672,3.684,3.683,3.67,3.67,3.677,3.67,3.665,3.678,3.696,3.699,3.687,3.689,3.713,3.725,3.721,3.721,3.725,3.729,3.73,3.731,3.748,3.765,3.765,3.773,3.774,3.752,3.754,3.763,3.744,3.746,3.767,3.751,3.742,3.774,3.778,3.754,3.753,3.761,3.758,3.755,3.758,3.76,3.754,3.752,3.762,3.764,3.76,3.763,3.764,3.76,3.757,3.753,3.76,3.774,3.77,3.76,3.764,3.762,3.754,3.759,3.762,3.759,3.764,3.773,3.777,3.78,3.781,3.779,3.781,3.782,3.772,3.764,3.773,3.781,3.779,3.78,3.782,3.778,3.78,3.782,3.773,3.764,3.76,3.764,3.781,3.794,3.798,3.8,3.79,3.777,3.774,3.763,3.753,3.765,3.777,3.776,3.77,3.764,3.778,3.797,3.787,3.775,3.78,3.775,3.764,3.761,3.757,3.756,3.76,3.76,3.76,3.76,3.766,3.787,3.794,3.782,3.784,3.79,3.778,3.772,3.776,3.776,3.769,3.762,3.76,3.765,3.764,3.766,3.777,3.781,3.78,3.78,3.779,3.781,3.78,3.774,3.778,3.78,3.765,3.758,3.76,3.759,3.766,3.778,3.78,3.777,3.775,3.78,3.775,3.752,3.74,3.742,3.732,3.733,3.767,3.786,3.775,3.765,3.768,3.783,3.8,3.802,3.798,3.795,3.793,3.805,3.823,3.83,3.831,3.827,3.816,3.816,3.821,3.815,3.81,3.807,3.792,3.781,3.781,3.779,3.775,3.776,3.772,3.765,3.77,3.778,3.775,3.777,3.783,3.772,3.76,3.76,3.752,3.754,3.76,3.75,3.76,3.784,3.763,3.746,3.774,3.776,3.758,3.772,3.77,3.75,3.759,3.765,3.759,3.781,3.807,3.812,3.822,3.821,3.789,3.74,3.669,3.575,3.485,3.399,3.315,3.282,3.308,3.336,3.341,3.339,3.325,3.312,3.349,3.434,3.517,3.582,3.63,3.661,3.695,3.722,3.729,3.735,3.74,3.731,3.732,3.744,3.745,3.749,3.76,3.76,3.755,3.757,3.76,3.761,3.757,3.755,3.755,3.748,3.736,3.739,3.755,3.761,3.754,3.743,3.735,3.729,3.736,3.756,3.766,3.761,3.761,3.767,3.765,3.758,3.751,3.744,3.741,3.739,3.742,3.753,3.758,3.754,3.759,3.765,3.752,3.74,3.753,3.765,3.758,3.754,3.758,3.752,3.744,3.756,3.768,3.761,3.748,3.745,3.745,3.735,3.724,3.726,3.726,3.722,3.728,3.727,3.71,3.706,3.71,3.706,3.705,3.698,3.677,3.661,3.653,3.645,3.646,3.642,3.63,3.637,3.649,3.645,3.642,3.654,3.673,3.685,3.68,3.675,3.684,3.686,3.688,3.709,3.723,3.714,3.71,3.717,3.723,3.726,3.729,3.734,3.743,3.754,3.758,3.751,3.74,3.726,3.718,3.733,3.752,3.757,3.769,3.777,3.754,3.74,3.763,3.767,3.744,3.74,3.753,3.755,3.755,3.756,3.749,3.736,3.73,3.736,3.74,3.73,3.727,3.734,3.741,3.75,3.762,3.765,3.761,3.758,3.752,3.741,3.737,3.745,3.755,3.762,3.77,3.775,3.769,3.753,3.737,3.738,3.751,3.755,3.755,3.758,3.75,3.745,3.76,3.765,3.753,3.753,3.759,3.76,3.764,3.772,3.775,3.765,3.758,3.764,3.765,3.759,3.765,3.763,3.754,3.763,3.76,3.741,3.757,3.781,3.76,3.748,3.764,3.752,3.73,3.74,3.759,3.765,3.76,3.754,3.759,3.763,3.756,3.755,3.751,3.737,3.743,3.756,3.742,3.73,3.751,3.767,3.762,3.76,3.761,3.759,3.76,3.757,3.753,3.756,3.756,3.757,3.77,3.78,3.777,3.773,3.765,3.756,3.756,3.754,3.746,3.748,3.757,3.764,3.765,3.766,3.779,3.786,3.771,3.76,3.761,3.756,3.756,3.758,3.745,3.749,3.761,3.741,3.732,3.764,3.773,3.757,3.761,3.761,3.743,3.742,3.757,3.764,3.758,3.755,3.758,3.749,3.74,3.75,3.754,3.744,3.751,3.757,3.741,3.738,3.751,3.756,3.759,3.764,3.767,3.781,3.795,3.792,3.797,3.809,3.804,3.793,3.799,3.803,3.797,3.79,3.781,3.771,3.776,3.782,3.774,3.778,3.791,3.774,3.749,3.741,3.732,3.734,3.755,3.762,3.759,3.766,3.76,3.744,3.74,3.74,3.74,3.739,3.73,3.734,3.743,3.74,3.748,3.761,3.74,3.719,3.731,3.741,3.74,3.744,3.745,3.759,3.789,3.807,3.816,3.82,3.795,3.758,3.716,3.632,3.528,3.44,3.354,3.286,3.275,3.284,3.288,3.302,3.305,3.287,3.288,3.321,3.378,3.461,3.535,3.58,3.619,3.656,3.682,3.698,3.7,3.701,3.716,3.718,3.71,3.721,3.731,3.72,3.72,3.729,3.724,3.714,3.703,3.701,3.716,3.724,3.719,3.724,3.726,3.714,3.71,3.711,3.708,3.71,3.706,3.687,3.689,3.72,3.734,3.727,3.725,3.721,3.696,3.675,3.682,3.7,3.705,3.704,3.709,3.709,3.705,3.714,3.73,3.726,3.716,3.727,3.724,3.702,3.707,3.721,3.712,3.713,3.73,3.731,3.728,3.731,3.725,3.719,3.722,3.719,3.705,3.693,3.69,3.687,3.678,3.675,3.671,3.655,3.65,3.65,3.628,3.618,3.632,3.625,3.617,3.635,3.621,3.582,3.579,3.59,3.579,3.577,3.591,3.599,3.601,3.599,3.598,3.615,3.644,3.664,3.668,3.672,3.67,3.655,3.651,3.673,3.689,3.691,3.705,3.72,3.713,3.703,3.705,3.707,3.703,3.7,3.704,3.706,3.705,3.709,3.71,3.703,3.7,3.699,3.703,3.719,3.726,3.71,3.7,3.694,3.681,3.675,3.683,3.693,3.702,3.701,3.699,3.709,3.7,3.683,3.695,3.698,3.673,3.68,3.703,3.689,3.678,3.689,3.686,3.68,3.692,3.7,3.7,3.701,3.7,3.699,3.704,3.713,3.724,3.727,3.725,3.73,3.728,3.709,3.7,3.716,3.719,3.702,3.698,3.705,3.695,3.685,3.696,3.709,3.71,3.721,3.739,3.739,3.727,3.724,3.725,3.725,3.725,3.724,3.72,3.722,3.727,3.725,3.723,3.729,3.723,3.71,3.719,3.732,3.731,3.725,3.715,3.71,3.729,3.746,3.739,3.738,3.739,3.72,3.702,3.7,3.7,3.7,3.701,3.699,3.7,3.707,3.713,3.721,3.729,3.728,3.717,3.71,3.716,3.72,3.711,3.713,3.724,3.709,3.686,3.693,3.705,3.693,3.693,3.717,3.722,3.703,3.704,3.724,3.728,3.723,3.725,3.716,3.701,3.701,3.705,3.703,3.709,3.724,3.728,3.724,3.73,3.735,3.72,3.71,3.718,3.717,3.71,3.718,3.719,3.707,3.718,3.738,3.737,3.73,3.726,3.724,3.725,3.726,3.725,3.733,3.739,3.743,3.746,3.74,3.733,3.725,3.709,3.705,3.719,3.719,3.721,3.745,3.755,3.746,3.742,3.736,3.73,3.73,3.713,3.701,3.729,3.751,3.735,3.736,3.756,3.748,3.726,3.731,3.748,3.755,3.758,3.765,3.784,3.807,3.807,3.791,3.781,3.77,3.755,3.755,3.757,3.753,3.761,3.775,3.769,3.759,3.764,3.764,3.749,3.728,3.709,3.706,3.725,3.75,3.754,3.738,3.729,3.732,3.721,3.706,3.711,3.724,3.725,3.724,3.725,3.725,3.728,3.732,3.73,3.729,3.73,3.723,3.72,3.722,3.718,3.724,3.747,3.758,3.761,3.772,3.773,3.763,3.751,3.712,3.648,3.571,3.472,3.391,3.36,3.333,3.315,3.345,3.362,3.33,3.308,3.32,3.357,3.43,3.514,3.576,3.606,3.621,3.65,3.682,3.684,3.685,3.705,3.709,3.708,3.724,3.729,3.72,3.723,3.725,3.72,3.719,3.721,3.72,3.72,3.722,3.726,3.725,3.726,3.733,3.73,3.724,3.728,3.723,3.711,3.716,3.726,3.722,3.714,3.707,3.705,3.717,3.73,3.73,3.735,3.749,3.755,3.758,3.766,3.761,3.742,3.738,3.738,3.721,3.725,3.755,3.754,3.742,3.756,3.75,3.722,3.732,3.763,3.758,3.733,3.724,3.73,3.738,3.742,3.745,3.742,3.737,3.742,3.742,3.73,3.724,3.721,3.701,3.685,3.69,3.694,3.682,3.675,3.675,3.673,3.67,3.666,3.653,3.643,3.65,3.655,3.656,3.666,3.671,3.668,3.671,3.671,3.668,3.671,3.67,3.67,3.682,3.7,3.718,3.729,3.724,3.726,3.738,3.74,3.743,3.747,3.734,3.729,3.739,3.739,3.746,3.756,3.752,3.757,3.76,3.733,3.721,3.738,3.736,3.732,3.754,3.761,3.75,3.756,3.762,3.755,3.756,3.757,3.747,3.747,3.754,3.755,3.756,3.755,3.743,3.743,3.756,3.75,3.738,3.741,3.74,3.745,3.76,3.761,3.759,3.771,3.775,3.774,3.775,3.762,3.757,3.771,3.775,3.774,3.778,3.771,3.765,3.763,3.757,3.761,3.766,3.761,3.76,3.757,3.753,3.764,3.766,3.765,3.785,3.79,3.779,3.784,3.778,3.764,3.771,3.759,3.739,3.761,3.784,3.776,3.767,3.765,3.781,3.808,3.799,3.772,3.762,3.751,3.746,3.758,3.762,3.759,3.76,3.756,3.755,3.755,3.752,3.765,3.776,3.778,3.791,3.792,3.776,3.783,3.79,3.775,3.772,3.775,3.763,3.759,3.763,3.767,3.778,3.784,3.776,3.761,3.746,3.749,3.766,3.773,3.781,3.79,3.783,3.777,3.781,3.776,3.773,3.776,3.775,3.778,3.779,3.775,3.788,3.8,3.787,3.785,3.807,3.805,3.778,3.77,3.777,3.765,3.758,3.78,3.795,3.78,3.773,3.782,3.777,3.768,3.763,3.76,3.77,3.785,3.774,3.759,3.768,3.774,3.762,3.766,3.784,3.778,3.761,3.764,3.779,3.789,3.788,3.779,3.778,3.783,3.778,3.774,3.779,3.779,3.775,3.771,3.759,3.76,3.782,3.794,3.789,3.792,3.801,3.798,3.783,3.775,3.774,3.766,3.765,3.786,3.795,3.795,3.81,3.814,3.801,3.806,3.825,3.831,3.82,3.805,3.809,3.818,3.809,3.811,3.823,3.805,3.789,3.795,3.788,3.779,3.777,3.754,3.748,3.78,3.794,3.783,3.781,3.788,3.793,3.788,3.776,3.777,3.779,3.766,3.76,3.771,3.78,3.781,3.778,3.774,3.768,3.758,3.764,3.779,3.781,3.782,3.795,3.804,3.819,3.836,3.834,3.824,3.811,3.773,3.715,3.646,3.556,3.464,3.391,3.345,3.327,3.324,3.326,3.331,3.32,3.303,3.329,3.397,3.471,3.54,3.602,3.652,3.686,3.703,3.703,3.701,3.721,3.75,3.754,3.753,3.771,3.771,3.755,3.769,3.783,3.763,3.755,3.773,3.78,3.779,3.787,3.789,3.781,3.777,3.772,3.76,3.757,3.764,3.765,3.771,3.783,3.776,3.765,3.778,3.793,3.79,3.791,3.799,3.8,3.793,3.785,3.779,3.779,3.781,3.78,3.78,3.785,3.793,3.795,3.798,3.801,3.794,3.794,3.813,3.819,3.803,3.795,3.795,3.795,3.796,3.794,3.79,3.784,3.779,3.798,3.82,3.809,3.792,3.783,3.767,3.757,3.742,3.714,3.718,3.74,3.732,3.721,3.725,3.711,3.695,3.687,3.672,3.666,3.673,3.675,3.681,3.686,3.685,3.695,3.705,3.705,3.71,3.705,3.701,3.722,3.743,3.745,3.745,3.741,3.744,3.768,3.781,3.775,3.776,3.776,3.772,3.778,3.781,3.768,3.767,3.78,3.783,3.776,3.782,3.79,3.785,3.78,3.789,3.794,3.796,3.795,3.785,3.778,3.78,3.777,3.775,3.781,3.777,3.774,3.783,3.781,3.774,3.788,3.795,3.773,3.764,3.776,3.77,3.761,3.79,3.827,3.824,3.804,3.795,3.787,3.774,3.765,3.755,3.761,3.783,3.792,3.782,3.782,3.798,3.802,3.789,3.78,3.782,3.774,3.759,3.761,3.771,3.775,3.779,3.785,3.792,3.795,3.793,3.787,3.78,3.778,3.784,3.791,3.794,3.797,3.794,3.79,3.791,3.787,3.776,3.768,3.763,3.765,3.773,3.776,3.781,3.783,3.769,3.759,3.76,3.755,3.758,3.765,3.75,3.751,3.782,3.783,3.763,3.768,3.769,3.747,3.742,3.758,3.767,3.761,3.755,3.761,3.767,3.765,3.775,3.784,3.77,3.756,3.756,3.754,3.755,3.763,3.765,3.76,3.756,3.756,3.767,3.776,3.768,3.759,3.76,3.758,3.754,3.755,3.756,3.754,3.755,3.756,3.75,3.745,3.751,3.768,3.775,3.766,3.762,3.767,3.76,3.753,3.761,3.764,3.756,3.757,3.76,3.756,3.755,3.754,3.746,3.735,3.725,3.72,3.733,3.747,3.743,3.738,3.75,3.752,3.728,3.727,3.757,3.761,3.741,3.747,3.754,3.736,3.727,3.73,3.726,3.73,3.743,3.741,3.736,3.746,3.755,3.746,3.733,3.73,3.73,3.729,3.731,3.738,3.75,3.754,3.741,3.743,3.765,3.764,3.753,3.762,3.757,3.743,3.762,3.784,3.788,3.804,3.808,3.791,3.783,3.772,3.754,3.756,3.763,3.759,3.764,3.765,3.758,3.76,3.759,3.753,3.755,3.752,3.735,3.724,3.724,3.73,3.743,3.747,3.732,3.725,3.739,3.745,3.736,3.746,3.75,3.718,3.707,3.735,3.737,3.724,3.738,3.736,3.71,3.709,3.727,3.73,3.73,3.738,3.741,3.74,3.75,3.776,3.793,3.791,3.785,3.759,3.705,3.654,3.59,3.493,3.402,3.34,3.297,3.288,3.302,3.314,3.324,3.325,3.318,3.347,3.428,3.517,3.584,3.626,3.653,3.668,3.674,3.682,3.696,3.7,3.69,3.683,3.691,3.707,3.709,3.698,3.698,3.706,3.693,3.671,3.678,3.698,3.705,3.715,3.721,3.696,3.674,3.689,3.707,3.702,3.698,3.701,3.7,3.699,3.701,3.705,3.706,3.703,3.706,3.707,3.7,3.702,3.71,3.709,3.712,3.71,3.7,3.707,3.72,3.71,3.701,3.699,3.687,3.689,3.704,3.701,3.7,3.708,3.705,3.705,3.717,3.72,3.722,3.729,3.714,3.687,3.69,3.704,3.701,3.698,3.7,3.684,3.667,3.662,3.647,3.631,3.632,3.627,3.62,3.628,3.628,3.62,3.619,3.606,3.595,3.595,3.572,3.556,3.583,3.597,3.589,3.607,3.622,3.618,3.63,3.644,3.644,3.646,3.649,3.655,3.668,3.67,3.674,3.692,3.7,3.699,3.701,3.7,3.693,3.684,3.674,3.681,3.695,3.701,3.704,3.704,3.698,3.7,3.702,3.697,3.701,3.706,3.701,3.701,3.705,3.705,3.705,3.705,3.701,3.7,3.7,3.691,3.68,3.687,3.702,3.707,3.705,3.705,3.703,3.697,3.686,3.675,3.678,3.685,3.687,3.698,3.698,3.677,3.686,3.717,3.713,3.703,3.714,3.701,3.681,3.698,3.721,3.725,3.724,3.718,3.704,3.685,3.674,3.683,3.692,3.689,3.7,3.708,3.701,3.712,3.726,3.716,3.711,3.72,3.713,3.702,3.7,3.704,3.716,3.72,3.711,3.713,3.72,3.713,3.706,3.705,3.701,3.699,3.702,3.71,3.719,3.716,3.704,3.703,3.705,3.699,3.699,3.702,3.699,3.704,3.712,3.706,3.7,3.701,3.699,3.706,3.71,3.686,3.677,3.705,3.712,3.696,3.708,3.714,3.684,3.676,3.697,3.695,3.685,3.696,3.704,3.699,3.699,3.701,3.7,3.705,3.71,3.708,3.705,3.702,3.695,3.69,3.697,3.705,3.704,3.704,3.71,3.708,3.705,3.706,3.703,3.7,3.701,3.693,3.684,3.688,3.693,3.688,3.689,3.699,3.71,3.72,3.714,3.691,3.687,3.706,3.714,3.709,3.71,3.709,3.704,3.71,3.72,3.716,3.704,3.703,3.707,3.704,3.704,3.71,3.708,3.7,3.704,3.712,3.7,3.678,3.68,3.702,3.71,3.713,3.737,3.755,3.745,3.743,3.763,3.771,3.759,3.755,3.762,3.767,3.764,3.76,3.762,3.765,3.757,3.751,3.758,3.756,3.737,3.726,3.725,3.715,3.705,3.713,3.724,3.724,3.728,3.739,3.737,3.726,3.725,3.724,3.713,3.711,3.719,3.717,3.708,3.709,3.712,3.708,3.7,3.7,3.711,3.72,3.713,3.71,3.722,3.73,3.731,3.745,3.763,3.772,3.775,3.766,3.738,3.696,3.64,3.581,3.516,3.425,3.339,3.298,3.28,3.27,3.286,3.307,3.3,3.285,3.296,3.348,3.429,3.504,3.556,3.594,3.619,3.635,3.649,3.663,3.677,3.691,3.702,3.708,3.71,3.71,3.711,3.709,3.709,3.719,3.727,3.725,3.724,3.725,3.72,3.719,3.722,3.719,3.711,3.709,3.711,3.719,3.727,3.72,3.71,3.715,3.723,3.725,3.736,3.744,3.738,3.739,3.743,3.737,3.739,3.752,3.754,3.745,3.73,3.722,3.732,3.741,3.738,3.75,3.757,3.737,3.734,3.754,3.753,3.737,3.73,3.729,3.735,3.741,3.743,3.753,3.753,3.741,3.747,3.756,3.74,3.729,3.73,3.718,3.709,3.715,3.721,3.725,3.72,3.703,3.686,3.672,3.66,3.655,3.65,3.637,3.629,3.63,3.63,3.63,3.629,3.637,3.649,3.65,3.647,3.655,3.666,3.679,3.697,3.706,3.708,3.717,3.719,3.711,3.713,3.725,3.73,3.73,3.731,3.742,3.754,3.749,3.739,3.752,3.758,3.735,3.72,3.733,3.743,3.74,3.748,3.762,3.752,3.731,3.74,3.758,3.744,3.727,3.735,3.74,3.729,3.724,3.731,3.742,3.747,3.738,3.73,3.735,3.742,3.745,3.743,3.738,3.74,3.75,3.761,3.765,3.757,3.754,3.754,3.743,3.737,3.751,3.755,3.754,3.766,3.764,3.747,3.749,3.762,3.766,3.761,3.753,3.754,3.758,3.752,3.755,3.765,3.763,3.766,3.768,3.756,3.757,3.762,3.746,3.743,3.755,3.739,3.733,3.765,3.774,3.754,3.757,3.763,3.748,3.741,3.757,3.765,3.756,3.755,3.763,3.765,3.765,3.767,3.758,3.743,3.738,3.747,3.757,3.76,3.762,3.767,3.765,3.757,3.756,3.76,3.761,3.757,3.755,3.756,3.747,3.739,3.753,3.766,3.763,3.765,3.762,3.748,3.757,3.767,3.759,3.77,3.778,3.754,3.747,3.764,3.766,3.768,3.775,3.768,3.763,3.759,3.753,3.766,3.775,3.766,3.769,3.788,3.8,3.79,3.773,3.776,3.773,3.751,3.768,3.808,3.794,3.772,3.78,3.77,3.758,3.765,3.749,3.737,3.758,3.767,3.762,3.767,3.774,3.78,3.776,3.761,3.761,3.767,3.765,3.775,3.783,3.78,3.787,3.794,3.787,3.781,3.776,3.776,3.78,3.777,3.776,3.78,3.775,3.782,3.796,3.784,3.774,3.783,3.777,3.764,3.768,3.775,3.776,3.773,3.776,3.788,3.785,3.773,3.778,3.779,3.775,3.789,3.789,3.773,3.781,3.795,3.792,3.79,3.793,3.806,3.822,3.805,3.786,3.805,3.815,3.812,3.836,3.855,3.838,3.822,3.819,3.812,3.807,3.812,3.815,3.811,3.812,3.82,3.815,3.806,3.811,3.814,3.796,3.777,3.774,3.782,3.795,3.809,3.814,3.805,3.8,3.808,3.805,3.787,3.78,3.781,3.781,3.792,3.807,3.81,3.81,3.805,3.796,3.795,3.796,3.793,3.797,3.808,3.816,3.822,3.829,3.842,3.854,3.855,3.85,3.833,3.788,3.723,3.642,3.532,3.426,3.369,3.35,3.34,3.345,3.365,3.364,3.331,3.317,3.353,3.415,3.495,3.592,3.663,3.695,3.722,3.754,3.772,3.776,3.775,3.777,3.788,3.803,3.813,3.817,3.813,3.814,3.826,3.829,3.815,3.808,3.814,3.815,3.813,3.822,3.831,3.822,3.815,3.824,3.83,3.823,3.821,3.83,3.832,3.828,3.831,3.832,3.822,3.814,3.815,3.816,3.815,3.82,3.827,3.832,3.835,3.842,3.848,3.844,3.843,3.852,3.846,3.835,3.845,3.848,3.83,3.836,3.868,3.874,3.855,3.847,3.85,3.846,3.843,3.856,3.865,3.853,3.843,3.85,3.849,3.842,3.846,3.84,3.823,3.813,3.798,3.782,3.782,3.78,3.768,3.765,3.765,3.757,3.754,3.755,3.748,3.736,3.728,3.729,3.737,3.741,3.74,3.748,3.764,3.776,3.78,3.78,3.78,3.779,3.786,3.8,3.814,3.827,3.841,3.845,3.838,3.833,3.829,3.821,3.823,3.84,3.85,3.848,3.854,3.865,3.86,3.853,3.867,3.887,3.885,3.86,3.845,3.848,3.842,3.843,3.867,3.872,3.85,3.846,3.852,3.844,3.846,3.857,3.853,3.849,3.853,3.847,3.849,3.863,3.862,3.85,3.848,3.851,3.85,3.849,3.851,3.849,3.849,3.859,3.866,3.856,3.847,3.857,3.865,3.858,3.855,3.868,3.883,3.887,3.884,3.885,3.886,3.884,3.885,3.886,3.881,3.874,3.871,3.869,3.872,3.883,3.891,3.888,3.885,3.886,3.88,3.864,3.863,3.883,3.889,3.873,3.874,3.887,3.877,3.873,3.894,3.891,3.858,3.852,3.866,3.86,3.853,3.869,3.884,3.885,3.885,3.885,3.879,3.872,3.87,3.872,3.88,3.885,3.875,3.864,3.874,3.885,3.877,3.868,3.87,3.868,3.863,3.865,3.869,3.871,3.876,3.883,3.887,3.883,3.876,3.872,3.868,3.865,3.871,3.879,3.885,3.889,3.89,3.89,3.887,3.878,3.866,3.851,3.848,3.863,3.875,3.871,3.874,3.886,3.887,3.883,3.886,3.886,3.875,3.861,3.864,3.884,3.89,3.885,3.886,3.878,3.864,3.87,3.884,3.884,3.884,3.886,3.884,3.885,3.889,3.891,3.89,3.886,3.885,3.884,3.873,3.867,3.872,3.871,3.87,3.88,3.885,3.884,3.886,3.884,3.877,3.872,3.87,3.874,3.881,3.887,3.89,3.887,3.884,3.885,3.885,3.885,3.884,3.874,3.863,3.869,3.883,3.887,3.883,3.885,3.888,3.879,3.87,3.88,3.889,3.884,3.887,3.9,3.906,3.909,3.915,3.925,3.93,3.912,3.89,3.891,3.892,3.89,3.912,3.93,3.919,3.908,3.91,3.908,3.903,3.9,3.893,3.886,3.885,3.886,3.878,3.869,3.882,3.893,3.887,3.89,3.896,3.88,3.876,3.886,3.875,3.866,3.882,3.884,3.873,3.883,3.891,3.879,3.875,3.883,3.883,3.874,3.873,3.883,3.891,3.89,3.895,3.912,3.929,3.932,3.926,3.909,3.871,3.814,3.742,3.646,3.538,3.456,3.406,3.381,3.385,3.409,3.432,3.431,3.42,3.455,3.547,3.629,3.693,3.765,3.799,3.795,3.814,3.837,3.835,3.851,3.879,3.885,3.888,3.891,3.883,3.884,3.888,3.883,3.885,3.888,3.882,3.885,3.89,3.888,3.891,3.891,3.886,3.885,3.877,3.867,3.876,3.89,3.891,3.889,3.89,3.89,3.888,3.884,3.884,3.888,3.892,3.899,3.897,3.885,3.89,3.902,3.893,3.891,3.908,3.904,3.887,3.888,3.891,3.881,3.884,3.903,3.913,3.91,3.903,3.894,3.883,3.872,3.872,3.892,3.91,3.897,3.882,3.89,3.891,3.88,3.886,3.893,3.878,3.863,3.853,3.839,3.836,3.844,3.842,3.829,3.815,3.804,3.797,3.794,3.785,3.769,3.759,3.759,3.764,3.765,3.76,3.758,3.764,3.775,3.789,3.805,3.816,3.818,3.831,3.849,3.851,3.85,3.857,3.85,3.847,3.867,3.875,3.865,3.872,3.887,3.886,3.883,3.886,3.886,3.876,3.867,3.87,3.876,3.873,3.876,3.885,3.879,3.869,3.88,3.905,3.907,3.886,3.881,3.887,3.874,3.868,3.892,3.905,3.889,3.879,3.873,3.865,3.867,3.87,3.865,3.867,3.872,3.87,3.868,3.876,3.886,3.886,3.883,3.886,3.886,3.882,3.889,3.885,3.867,3.87,3.886,3.887,3.883,3.885,3.885,3.885,3.885,3.885,3.887,3.88,3.87,3.87,3.868,3.865,3.873,3.876,3.876,3.884,3.883,3.869,3.865,3.869,3.87,3.87,3.873,3.881,3.885,3.873,3.865,3.873,3.876,3.867,3.866,3.865,3.854,3.85,3.868,3.888,3.883,3.86,3.85,3.851,3.851,3.863,3.882,3.883,3.875,3.873,3.862,3.849,3.853,3.856,3.848,3.849,3.854,3.847,3.849,3.863,3.862,3.855,3.863,3.864,3.853,3.849,3.851,3.849,3.849,3.859,3.869,3.87,3.866,3.865,3.865,3.857,3.852,3.849,3.846,3.845,3.854,3.864,3.867,3.862,3.855,3.851,3.85,3.85,3.847,3.838,3.836,3.848,3.861,3.866,3.865,3.858,3.839,3.819,3.825,3.857,3.869,3.849,3.848,3.872,3.868,3.848,3.858,3.87,3.857,3.847,3.85,3.847,3.842,3.846,3.85,3.85,3.85,3.85,3.85,3.851,3.85,3.846,3.846,3.851,3.852,3.845,3.846,3.85,3.842,3.832,3.83,3.823,3.82,3.831,3.846,3.858,3.873,3.887,3.901,3.912,3.911,3.905,3.894,3.875,3.868,3.871,3.864,3.866,3.88,3.885,3.884,3.887,3.882,3.871,3.857,3.847,3.85,3.843,3.828,3.851,3.883,3.875,3.865,3.87,3.857,3.842,3.85,3.854,3.844,3.835,3.831,3.826,3.819,3.83,3.849,3.838,3.812,3.811,3.816,3.815,3.825,3.833,3.836,3.847,3.853,3.858,3.88,3.895,3.885,3.871,3.84,3.777,3.702,3.608,3.502,3.426,3.395,3.38,3.376,3.395,3.426,3.434,3.43,3.47,3.556,3.618,3.655,3.699,3.728,3.737,3.758,3.779,3.78,3.79,3.804,3.795,3.789,3.805,3.809,3.8,3.806,3.809,3.797,3.799,3.815,3.811,3.807,3.826,3.835,3.816,3.808,3.809,3.798,3.797,3.815,3.821,3.814,3.806,3.795,3.793,3.797,3.795,3.798,3.801,3.793,3.789,3.793,3.797,3.808,3.817,3.812,3.81,3.803,3.785,3.78,3.781,3.78,3.795,3.809,3.809,3.812,3.815,3.813,3.806,3.795,3.792,3.799,3.793,3.788,3.797,3.791,3.78,3.787,3.789,3.78,3.771,3.759,3.761,3.768,3.753,3.739,3.741,3.731,3.717,3.711,3.703,3.699,3.69,3.668,3.671,3.691,3.688,3.688,3.71,3.708,3.695,3.707,3.724,3.725,3.729,3.74,3.741,3.742,3.758,3.773,3.778,3.781,3.776,3.773,3.786,3.79,3.78,3.786,3.795,3.793,3.806,3.814,3.794,3.788,3.797,3.791,3.789,3.8,3.8,3.795,3.797,3.8,3.797,3.791,3.791,3.795,3.787,3.779,3.793,3.81,3.806,3.795,3.793,3.797,3.794,3.79,3.794,3.793,3.782,3.778,3.778,3.761,3.754,3.784,3.811,3.801,3.792,3.802,3.799,3.788,3.81,3.835,3.821,3.807,3.81,3.801,3.795,3.812,3.819,3.804,3.794,3.79,3.79,3.799,3.809,3.817,3.82,3.809,3.799,3.806,3.809,3.798,3.793,3.796,3.795,3.802,3.814,3.81,3.807,3.813,3.809,3.8,3.8,3.793,3.792,3.809,3.813,3.797,3.792,3.796,3.79,3.782,3.781,3.791,3.796,3.791,3.798,3.81,3.802,3.794,3.795,3.794,3.8,3.81,3.805,3.796,3.795,3.792,3.785,3.779,3.791,3.816,3.815,3.791,3.789,3.798,3.789,3.79,3.805,3.809,3.798,3.791,3.799,3.809,3.81,3.811,3.81,3.796,3.788,3.79,3.782,3.782,3.8,3.81,3.803,3.79,3.781,3.776,3.775,3.78,3.79,3.785,3.78,3.792,3.797,3.795,3.795,3.787,3.779,3.789,3.797,3.793,3.795,3.796,3.792,3.79,3.789,3.793,3.795,3.79,3.792,3.797,3.8,3.808,3.807,3.793,3.782,3.776,3.776,3.78,3.78,3.801,3.829,3.814,3.797,3.816,3.816,3.812,3.853,3.877,3.861,3.847,3.837,3.831,3.838,3.835,3.839,3.862,3.864,3.852,3.847,3.831,3.819,3.829,3.827,3.811,3.804,3.797,3.795,3.805,3.815,3.82,3.821,3.818,3.813,3.798,3.79,3.798,3.796,3.791,3.798,3.795,3.792,3.799,3.787,3.778,3.791,3.794,3.794,3.801,3.797,3.795,3.797,3.795,3.818,3.849,3.86,3.872,3.86,3.815,3.786,3.718,3.611,3.632